semg,time
0.271395434012941,0.003264904022216797
0.25698937858625315,0.006422996520996094
0.267488707117568,0.009125232696533203
0.2586985716029788,0.012174844741821289
0.25967525332682206,0.014931678771972656
0.271395434012941,0.017932653427124023
0.27041875228909773,0.020623207092285156
0.25674520815529234,0.023300886154174805
0.267488707117568,0.026061058044433594
0.2599194237577829,0.02901625633239746
0.2608961054816261,0.03170633316040039
0.2716396044439018,0.03445720672607422
0.271395434012941,0.03741312026977539
0.2562568672933707,0.04010200500488281
0.26846538884141125,0.04282522201538086
0.2608961054816261,0.04555201530456543
0.26211695763643017,0.04850888252258301
0.2718837748748626,0.05123472213745117
0.2718837748748626,0.0540773868560791
0.2582102307410572,0.05675697326660156
0.26846538884141125,0.0597531795501709
0.26187278720546936,0.06243252754211426
0.26407032108411665,0.06514883041381836
0.27530216090831394,0.0678708553314209
0.2723721157367842,0.07083272933959961
0.2601635941887437,0.0735177993774414
0.271395434012941,0.07627105712890625
0.2645586619460383,0.07924342155456543
0.267488707117568,0.08197188377380371
0.276523013063118,0.08488106727600098
0.27334879746062746,0.08757615089416504
0.26138444634354774,0.09057116508483887
0.2701745818581369,0.09325671195983887
0.26431449151507747,0.09597325325012207
0.26870955927237206,0.09869647026062012
0.27749969478696124,0.10164880752563477
0.27310462702966665,0.10437631607055664
0.26187278720546936,0.10709214210510254
0.2716396044439018,0.10977792739868164
0.2652911732389207,0.1127314567565918
0.2694420705652545,0.11548233032226562
0.27554633133927475,0.11816573143005371
0.27310462702966665,0.12111973762512207
0.26187278720546936,0.12386965751647949
0.26895372970333287,0.1265544891357422
0.2626052984983518,0.12923359870910645
0.26675619582468557,0.1322188377380371
0.27505799047735313,0.13495993614196777
0.271395434012941,0.13765168190002441
0.25967525332682206,0.1403496265411377
0.26870955927237206,0.14330005645751953
0.2626052984983518,0.14606213569641113
0.2672445366866072,0.14874720573425293
0.2748138200463923,0.15142822265625
0.2718837748748626,0.15448522567749023
0.26162861677450855,0.1571793556213379
0.27041875228909773,0.1598649024963379
0.26358198022219503,0.16285443305969238
0.2699304114271761,0.16558003425598145
0.27530216090831394,0.16827058792114258
0.272616286167745,0.17099881172180176
0.2608961054816261,0.1739814281463623
0.2691979001342937,0.17666959762573242
0.26382615065315584,0.1794261932373047
0.2694420705652545,0.18211984634399414
0.2745696496154315,0.18512868881225586
0.27090709315101935,0.1878659725189209
0.26162861677450855,0.19055414199829102
0.2677328775485288,0.1932361125946045
0.2628494689293126,0.19623732566833496
0.2655353436698815,0.19779658317565918
0.27505799047735313,0.19913649559020996
0.27310462702966665,0.20048236846923828
0.27359296789158827,0.2018425464630127
0.27554633133927475,0.2031872272491455
0.2677328775485288,0.20469331741333008
0.26138444634354774,0.2060387134552002
0.2699304114271761,0.2073807716369629
0.27359296789158827,0.2087242603302002
0.271395434012941,0.21008753776550293
0.26651202539372476,0.21143102645874023
0.267488707117568,0.21277308464050293
0.2694420705652545,0.21423935890197754
0.2809180808204126,0.2156226634979248
0.2806739103894518,0.2169663906097412
0.28018556952753015,0.21833276748657227
0.28287144426809907,0.21967363357543945
0.27530216090831394,0.22101449966430664
0.2679770479794896,0.22235655784606934
0.272616286167745,0.22369813919067383
0.2789647173727261,0.22519850730895996
0.2794530582346477,0.2265644073486328
0.2718837748748626,0.22790956497192383
0.2723721157367842,0.22925138473510742
0.2718837748748626,0.23059415817260742
0.281650592113295,0.2319345474243164
0.285557319008668,0.2332758903503418
0.2814064216823342,0.23479890823364258
0.2862898303015504,0.2361466884613037
0.28018556952753015,0.23749041557312012
0.272616286167745,0.2388303279876709
0.27505799047735313,0.2401719093322754
0.2831156146990599,0.24151134490966797
0.28042973995849096,0.2428734302520752
0.2762788426321572,0.2442324161529541
0.27505799047735313,0.2457127571105957
0.27505799047735313,0.24707412719726562
0.2833597851300207,0.24841594696044922
0.28897570504211934,0.24977827072143555
0.28433646685386393,0.25112104415893555
0.28897570504211934,0.25246500968933105
0.28287144426809907,0.253828763961792
0.27505799047735313,0.25531744956970215
0.27359296789158827,0.25666069984436035
0.28238310340617745,0.2580227851867676
0.28042973995849096,0.25936460494995117
0.2772555243560004,0.2607080936431885
0.27530216090831394,0.26204967498779297
0.276523013063118,0.26339221000671387
0.281650592113295,0.26475024223327637
0.2899523867659626,0.26625633239746094
0.28653400073251123,0.26759910583496094
0.28946404590404096,0.2689392566680908
0.2860456598705896,0.270277738571167
0.27823220607984367,0.271622896194458
0.2743254791844707,0.2729637622833252
0.2831156146990599,0.274355411529541
0.2836039555609815,0.27584409713745117
0.2794530582346477,0.2771897315979004
0.27749969478696124,0.27853941917419434
0.27823220607984367,0.27988529205322266
0.28238310340617745,0.28122520446777344
0.2921499206446099,0.2825920581817627
0.2899523867659626,0.28395557403564453
0.2901965571969234,0.28529810905456543
0.2887315346111585,0.2867898941040039
0.2811622512513734,0.28813672065734863
0.27530216090831394,0.28947925567626953
0.28482480771578556,0.29084086418151855
0.28433646685386393,0.2921781539916992
0.2811622512513734,0.29352402687072754
0.2772555243560004,0.29488420486450195
0.27749969478696124,0.29636549949645996
0.2809180808204126,0.2977294921875
0.2928824319374923,0.30031752586364746
0.28921987547308015,0.3029966354370117
0.276523013063118,0.30574655532836914
0.281650592113295,0.3087046146392822
0.27505799047735313,0.31139707565307617
0.27359296789158827,0.3141517639160156
0.2882431937492369,0.31711316108703613
0.2860456598705896,0.31980085372924805
0.27334879746062746,0.32253360748291016
0.2784763765108045,0.3252575397491455
0.2723721157367842,0.3282184600830078
0.27090709315101935,0.33093905448913574
0.2853131485777072,0.33362412452697754
0.28287144426809907,0.33634424209594727
0.2699304114271761,0.3393113613128662
0.2770113539250396,0.3419983386993408
0.27041875228909773,0.3447153568267822
0.2699304114271761,0.34743690490722656
0.2831156146990599,0.35039496421813965
0.2809180808204126,0.35308265686035156
0.26846538884141125,0.35584115982055664
0.2738371383225491,0.3587923049926758
0.2677328775485288,0.3614847660064697
0.26602368453180314,0.3642404079437256
0.2794530582346477,0.3669288158416748
0.27823220607984367,0.3699204921722412
0.2652911732389207,0.37261176109313965
0.2718837748748626,0.3753468990325928
0.2655353436698815,0.3780696392059326
0.26407032108411665,0.3810555934906006
0.27823220607984367,0.383758544921875
0.27554633133927475,0.3865194320678711
0.2633378097912342,0.389204740524292
0.2699304114271761,0.3921699523925781
0.2628494689293126,0.3949425220489502
0.26187278720546936,0.39762234687805176
0.27530216090831394,0.4005746841430664
0.2743254791844707,0.4033074378967285
0.26187278720546936,0.4060347080230713
0.2691979001342937,0.4087233543395996
0.2628494689293126,0.41171717643737793
0.26162861677450855,0.414445161819458
0.2760346722011964,0.4171311855316162
0.27310462702966665,0.4198594093322754
0.25967525332682206,0.422823429107666
0.26870955927237206,0.42554759979248047
0.2604077646197045,0.4282701015472412
0.25943108289586125,0.4309508800506592
0.27359296789158827,0.433976411819458
0.2716396044439018,0.43666553497314453
0.25943108289586125,0.4393477439880371
0.267488707117568,0.4423232078552246
0.2608961054816261,0.44504761695861816
0.2608961054816261,0.44773221015930176
0.27554633133927475,0.4504570960998535
0.27359296789158827,0.45441484451293945
0.2606519350506653,0.45766520500183105
0.26651202539372476,0.4607672691345215
0.26211695763643017,0.464038610458374
0.27505799047735313,0.4670407772064209
0.27579050177023556,0.47059059143066406
0.2601635941887437,0.47350382804870605
0.2691979001342937,0.4767038822174072
0.26382615065315584,0.4795994758605957
0.2718837748748626,0.48269033432006836
0.2748138200463923,0.4862222671508789
0.26675619582468557,0.48927760124206543
0.2738371383225491,0.4924592971801758
0.2655353436698815,0.4968702793121338
0.2784763765108045,0.5000677108764648
0.27823220607984367,0.5031609535217285
0.2655353436698815,0.5063941478729248
0.2748138200463923,0.5094757080078125
0.26651202539372476,0.5125119686126709
0.2716396044439018,0.5156774520874023
0.27823220607984367,0.5187499523162842
0.2718837748748626,0.5218372344970703
0.2699304114271761,0.5250203609466553
0.2694420705652545,0.5278632640838623
0.26651202539372476,0.5308959484100342
0.2806739103894518,0.5341441631317139
0.27969722866560853,0.5369274616241455
0.2648028323769991,0.5397584438323975
0.27505799047735313,0.5429854393005371
0.267488707117568,0.5461738109588623
0.27359296789158827,0.5489134788513184
0.2794530582346477,0.5517246723175049
0.27579050177023556,0.5549280643463135
0.27041875228909773,0.5580074787139893
0.27066292272005854,0.5609924793243408
0.26651202539372476,0.5642209053039551
0.28042973995849096,0.5672726631164551
0.2792088878036869,0.5704264640808105
0.2626052984983518,0.5734555721282959
0.2723721157367842,0.5765984058380127
0.2655353436698815,0.5797357559204102
0.2743254791844707,0.5828220844268799
0.2760346722011964,0.5860066413879395
0.2679770479794896,0.5890095233917236
0.2716396044439018,0.5920641422271729
0.2652911732389207,0.5953285694122314
0.26358198022219503,0.5982708930969238
0.2770113539250396,0.6011245250701904
0.27505799047735313,0.6041891574859619
0.2608961054816261,0.6073164939880371
0.2701745818581369,0.6102516651153564
0.2645586619460383,0.6130096912384033
0.27310462702966665,0.6160581111907959
0.276523013063118,0.6192185878753662
0.2691979001342937,0.622183084487915
0.27090709315101935,0.6251039505004883
0.26870955927237206,0.6281163692474365
0.26651202539372476,0.6310849189758301
0.2811622512513734,0.6341912746429443
0.27823220607984367,0.6372404098510742
0.2628494689293126,0.6403415203094482
0.27359296789158827,0.643500804901123
0.26675619582468557,0.6467056274414062
0.27749969478696124,0.649806022644043
0.27749969478696124,0.6528949737548828
0.2679770479794896,0.6560113430023193
0.2738371383225491,0.6591815948486328
0.26626785496276395,0.6619958877563477
0.2677328775485288,0.6652517318725586
0.2787205469417653,0.6684243679046631
0.27505799047735313,0.671238899230957
0.2648028323769991,0.6744074821472168
0.2718837748748626,0.6772398948669434
0.2679770479794896,0.6802310943603516
0.2792088878036869,0.6834189891815186
0.27749969478696124,0.6862869262695312
0.2677328775485288,0.6890199184417725
0.2723721157367842,0.6922769546508789
0.26675619582468557,0.6954457759857178
0.26577951410084233,0.69828200340271
0.27798803564888286,0.7010111808776855
0.2770113539250396,0.7040665149688721
0.26162861677450855,0.7072741985321045
0.2699304114271761,0.710158109664917
0.26407032108411665,0.7132105827331543
0.276523013063118,0.7165877819061279
0.2762788426321572,0.7196300029754639
0.2648028323769991,0.7227809429168701
0.27359296789158827,0.7259073257446289
0.2645586619460383,0.7289488315582275
0.2691979001342937,0.7321112155914307
0.276523013063118,0.7352283000946045
0.2723721157367842,0.7383453845977783
0.267488707117568,0.7413992881774902
0.26846538884141125,0.7444825172424316
0.2645586619460383,0.7473747730255127
0.27774386521792205,0.7504007816314697
0.2770113539250396,0.7532029151916504
0.26382615065315584,0.7561707496643066
0.2718837748748626,0.7588765621185303
0.2648028323769991,0.7615628242492676
0.2648028323769991,0.7643451690673828
0.2794530582346477,0.7670323848724365
0.276523013063118,0.7697548866271973
0.2652911732389207,0.7724456787109375
0.2699304114271761,0.7751684188842773
0.26602368453180314,0.7778897285461426
0.2633378097912342,0.7805712223052979
0.2772555243560004,0.7832660675048828
0.27505799047735313,0.7860918045043945
0.26651202539372476,0.7887837886810303
0.26822121841045043,0.7914693355560303
0.267488707117568,0.7942426204681396
0.26382615065315584,0.7969264984130859
0.27530216090831394,0.7996120452880859
0.2743254791844707,0.8023302555084229
0.2691979001342937,0.8050522804260254
0.2652911732389207,0.8077399730682373
0.26846538884141125,0.8104569911956787
0.26358198022219503,0.8131422996520996
0.2699304114271761,0.8158609867095947
0.2743254791844707,0.8185901641845703
0.2696862409962153,0.8212692737579346
0.2604077646197045,0.8239841461181641
0.2677328775485288,0.8267011642456055
0.2608961054816261,0.8293871879577637
0.26382615065315584,0.8320677280426025
0.27115126358198016,0.8348441123962402
0.27066292272005854,0.8375322818756104
0.25698937858625315,0.8402159214019775
0.2679770479794896,0.842940092086792
0.2606519350506653,0.8456642627716064
0.26162861677450855,0.848346471786499
0.2745696496154315,0.8510668277740479
0.2718837748748626,0.853752613067627
0.2577218898791356,0.8564906120300293
0.26870955927237206,0.8592088222503662
0.2599194237577829,0.8618910312652588
0.26138444634354774,0.8646020889282227
0.27530216090831394,0.86733078956604
0.27334879746062746,0.870011568069458
0.26138444634354774,0.8726916313171387
0.2691979001342937,0.87544846534729
0.2626052984983518,0.878136396408081
0.2608961054816261,0.8808176517486572
0.2743254791844707,0.883551836013794
0.2716396044439018,0.8862838745117188
0.26211695763643017,0.8889670372009277
0.26602368453180314,0.8916923999786377
0.26382615065315584,0.8944189548492432
0.2601635941887437,0.8971025943756104
0.2716396044439018,0.8998227119445801
0.2694420705652545,0.9025070667266846
0.26358198022219503,0.9052243232727051
0.2626052984983518,0.9079468250274658
0.2630936393602734,0.9106364250183105
0.2586985716029788,0.9133179187774658
0.2677328775485288,0.9160656929016113
0.26895372970333287,0.9187436103820801
0.2648028323769991,0.9214329719543457
0.25723354901721396,0.9241943359375
0.26407032108411665,0.9268803596496582
0.2579660603100964,0.9295563697814941
0.2645586619460383,0.9322822093963623
0.27066292272005854,0.9349954128265381
0.2694420705652545,0.9377017021179199
0.25698937858625315,0.940410852432251
0.267488707117568,0.943096399307251
0.2608961054816261,0.9458484649658203
0.2628494689293126,0.9485337734222412
0.2740813087535099,0.9512109756469727
0.2716396044439018,0.953963041305542
0.2565010377243315,0.9566478729248047
0.2694420705652545,0.9593360424041748
0.2608961054816261,0.9620528221130371
0.2608961054816261,0.9648666381835938
0.2772555243560004,0.9675564765930176
0.27359296789158827,0.9702811241149902
0.2601635941887437,0.9729583263397217
0.2701745818581369,0.9756944179534912
0.26187278720546936,0.978412389755249
0.26187278720546936,0.9810974597930908
0.2762788426321572,0.9837846755981445
0.27359296789158827,0.9865453243255615
0.2626052984983518,0.9892265796661377
0.2677328775485288,0.9919040203094482
0.26358198022219503,0.9946577548980713
0.2606519350506653,0.9973363876342773
0.27359296789158827,1.0000123977661133
0.27310462702966665,1.0027647018432617
0.26431449151507747,1.0054805278778076
0.26651202539372476,1.0081651210784912
0.2648028323769991,1.0108840465545654
0.2626052984983518,1.013573408126831
0.2743254791844707,1.0162885189056396
0.2740813087535099,1.0190184116363525
0.267488707117568,1.021698236465454
0.2628494689293126,1.0244152545928955
0.26651202539372476,1.027134656906128
0.26138444634354774,1.0298140048980713
0.26870955927237206,1.0324907302856445
0.2718837748748626,1.0352506637573242
0.26870955927237206,1.0379269123077393
0.2582102307410572,1.0406079292297363
0.2672445366866072,1.0433292388916016
0.26138444634354774,1.0460383892059326
0.2655353436698815,1.0487279891967773
0.27334879746062746,1.0514538288116455
0.271395434012941,1.0541706085205078
0.25698937858625315,1.0568492412567139
0.26651202539372476,1.0595777034759521
0.2582102307410572,1.0622656345367432
0.25967525332682206,1.0649819374084473
0.27310462702966665,1.0677194595336914
0.271395434012941,1.0704071521759033
0.25747771944817477,1.0730962753295898
0.2677328775485288,1.0758495330810547
0.25943108289586125,1.0785317420959473
0.25918691246490044,1.0812084674835205
0.2745696496154315,1.0839762687683105
0.2723721157367842,1.0866656303405762
0.2606519350506653,1.089350938796997
0.26822121841045043,1.0920751094818115
0.2628494689293126,1.0948119163513184
0.2606519350506653,1.0974929332733154
0.2743254791844707,1.1002163887023926
0.2716396044439018,1.1028978824615479
0.26431449151507747,1.1056320667266846
0.267488707117568,1.108339786529541
0.2655353436698815,1.1110279560089111
0.26187278720546936,1.1137433052062988
0.2748138200463923,1.1164569854736328
0.27334879746062746,1.1191411018371582
0.2677328775485288,1.1218664646148682
0.2652911732389207,1.124793291091919
0.26651202539372476,1.12748384475708
0.26211695763643017,1.1304664611816406
0.2738371383225491,1.1332619190216064
0.2738371383225491,1.1360137462615967
0.26651202539372476,1.1387383937835693
0.26602368453180314,1.1414198875427246
0.26651202539372476,1.1441583633422852
0.2626052984983518,1.1468820571899414
0.27310462702966665,1.1495602130889893
0.27359296789158827,1.1522445678710938
0.26846538884141125,1.1550004482269287
0.26211695763643017,1.1576809883117676
0.26651202539372476,1.1603600978851318
0.2606519350506653,1.163083791732788
0.26675619582468557,1.1657941341400146
0.2716396044439018,1.168473482131958
0.2699304114271761,1.1711952686309814
0.25894274203393963,1.173901081085205
0.2677328775485288,1.176588535308838
0.26138444634354774,1.179307460784912
0.2645586619460383,1.1819863319396973
0.2748138200463923,1.1847267150878906
0.2723721157367842,1.1874728202819824
0.25747771944817477,1.1901519298553467
0.26870955927237206,1.1928355693817139
0.2599194237577829,1.1955969333648682
0.2599194237577829,1.1982755661010742
0.27310462702966665,1.200955867767334
0.27115126358198016,1.2036848068237305
0.25698937858625315,1.206411600112915
0.267488707117568,1.2090966701507568
0.25967525332682206,1.2118167877197266
0.25943108289586125,1.2145535945892334
0.2738371383225491,1.2172350883483887
0.27066292272005854,1.2199516296386719
0.2586985716029788,1.2226338386535645
0.2652911732389207,1.2253878116607666
0.2601635941887437,1.2281906604766846
0.25967525332682206,1.2308776378631592
0.2745696496154315,1.2335593700408936
0.2718837748748626,1.2363061904907227
0.26382615065315584,1.2389895915985107
0.26602368453180314,1.2416877746582031
0.2648028323769991,1.2444212436676025
0.2608961054816261,1.2471020221710205
0.272616286167745,1.2498195171356201
0.27115126358198016,1.2525086402893066
0.2655353436698815,1.2552330493927002
0.2626052984983518,1.2579829692840576
0.2655353436698815,1.2606663703918457
0.2606519350506653,1.2633533477783203
0.2694420705652545,1.266191005706787
0.27041875228909773,1.2688775062561035
0.26675619582468557,1.2715599536895752
0.2586985716029788,1.2743093967437744
0.2672445366866072,1.2769834995269775
0.25967525332682206,1.2796645164489746
0.2652911732389207,1.282388687133789
0.2718837748748626,1.2851073741912842
0.2694420705652545,1.2877988815307617
0.25698937858625315,1.2905304431915283
0.2655353436698815,1.2932155132293701
0.2579660603100964,1.2959327697753906
0.2599194237577829,1.2986512184143066
0.27041875228909773,1.301330327987671
0.2699304114271761,1.3040478229522705
0.2562568672933707,1.306774377822876
0.2677328775485288,1.309452772140503
0.25943108289586125,1.3121328353881836
0.25918691246490044,1.314880132675171
0.27310462702966665,1.3175690174102783
0.2716396044439018,1.3202497959136963
0.2577218898791356,1.3229725360870361
0.26577951410084233,1.325676441192627
0.2582102307410572,1.3283512592315674
0.25747771944817477,1.3310682773590088
0.27041875228909773,1.333752155303955
0.26895372970333287,1.336482286453247
0.25943108289586125,1.3392014503479004
0.2633378097912342,1.3418843746185303
0.2608961054816261,1.344599723815918
0.2579660603100964,1.3473105430603027
0.2696862409962153,1.3499925136566162
0.267488707117568,1.3526759147644043
0.2608961054816261,1.3554296493530273
0.2608961054816261,1.358114242553711
0.2608961054816261,1.36079740524292
0.25698937858625315,1.363515853881836
0.26846538884141125,1.3662333488464355
0.2694420705652545,1.368922233581543
0.26675619582468557,1.3716442584991455
0.2599194237577829,1.3743548393249512
0.2648028323769991,1.3770527839660645
0.25894274203393963,1.3797791004180908
0.2648028323769991,1.3824617862701416
0.2694420705652545,1.3851842880249023
0.26651202539372476,1.3879241943359375
0.2555243560004883,1.390608787536621
0.26407032108411665,1.3932974338531494
0.2577218898791356,1.3960719108581543
0.26138444634354774,1.3987529277801514
0.2699304114271761,1.4014332294464111
0.2691979001342937,1.4041869640350342
0.2540593334147234,1.406855821609497
0.26651202539372476,1.4095408916473389
0.25747771944817477,1.4122602939605713
0.25723354901721396,1.414978265762329
0.271395434012941,1.417679786682129
0.26870955927237206,1.4203851222991943
0.2555243560004883,1.4230663776397705
0.2650470028079599,1.4258246421813965
0.25674520815529234,1.428506851196289
0.25698937858625315,1.431182861328125
0.27041875228909773,1.4339280128479004
0.2691979001342937,1.4366202354431152
0.2586985716029788,1.439302921295166
0.2648028323769991,1.4420254230499268
0.26187278720546936,1.4447376728057861
0.2586985716029788,1.4474217891693115
0.2738371383225491,1.4501490592956543
0.2694420705652545,1.4528374671936035
0.26187278720546936,1.4555602073669434
0.26358198022219503,1.458284616470337
0.2626052984983518,1.4609651565551758
0.25894274203393963,1.4636480808258057
0.2696862409962153,1.466395378112793
0.2694420705652545,1.4690847396850586
0.2645586619460383,1.4717741012573242
0.2599194237577829,1.4745521545410156
0.26407032108411665,1.477240800857544
0.25894274203393963,1.479917049407959
0.26577951410084233,1.4826350212097168
0.2699304114271761,1.4853463172912598
0.26602368453180314,1.4880352020263672
0.2555243560004883,1.4907622337341309
0.26431449151507747,1.493448257446289
0.2577218898791356,1.4961669445037842
0.26138444634354774,1.498894214630127
0.27066292272005854,1.501570701599121
0.2694420705652545,1.5042853355407715
0.2560126968624099,1.5070061683654785
0.26846538884141125,1.5096876621246338
0.2599194237577829,1.5123639106750488
0.26187278720546936,1.5151374340057373
0.2743254791844707,1.5178208351135254
0.2723721157367842,1.5204999446868896
0.2579660603100964,1.5232226848602295
0.2655353436698815,1.5272541046142578
0.25967525332682206,1.5299839973449707
0.26651202539372476,1.532667875289917
0.2694420705652545,1.5353822708129883
0.26577951410084233,1.538367748260498
0.25967525332682206,1.5410518646240234
0.2652911732389207,1.5437443256378174
0.2601635941887437,1.546757459640503
0.2696862409962153,1.5494492053985596
0.2723721157367842,1.5521442890167236
0.2691979001342937,1.5549018383026123
0.2630936393602734,1.557861566543579
0.2672445366866072,1.5605437755584717
0.2628494689293126,1.5632679462432861
0.2716396044439018,1.565985918045044
0.2767671834940788,1.5689418315887451
0.2738371383225491,1.5716667175292969
0.267488707117568,1.5744118690490723
0.2743254791844707,1.577101230621338
0.26846538884141125,1.5800819396972656
0.276523013063118,1.5827722549438477
0.27823220607984367,1.5854921340942383
0.27505799047735313,1.5884912014007568
0.2679770479794896,1.591193675994873
0.27066292272005854,1.5939536094665527
0.2648028323769991,1.5966424942016602
0.2723721157367842,1.5995984077453613
0.27554633133927475,1.6023180484771729
0.27115126358198016,1.6050395965576172
0.2645586619460383,1.607724666595459
0.27041875228909773,1.6107172966003418
0.26602368453180314,1.6134026050567627
0.2743254791844707,1.6161184310913086
0.276523013063118,1.6188409328460693
0.27041875228909773,1.6217970848083496
0.2652911732389207,1.6245219707489014
0.27041875228909773,1.6272449493408203
0.2645586619460383,1.6301970481872559
0.27359296789158827,1.632885217666626
0.27505799047735313,1.6356453895568848
0.27066292272005854,1.6383321285247803
0.2645586619460383,1.641291618347168
0.26846538884141125,1.6440691947937012
0.26382615065315584,1.6467556953430176
0.271395434012941,1.64943528175354
0.2743254791844707,1.652423620223999
0.2694420705652545,1.6551406383514404
0.2645586619460383,1.6578550338745117
0.2691979001342937,1.6605405807495117
0.26358198022219503,1.6634962558746338
0.27359296789158827,1.666260004043579
0.27505799047735313,1.668952226638794
0.27041875228909773,1.6719050407409668
0.2655353436698815,1.6746788024902344
0.2694420705652545,1.6773626804351807
0.26382615065315584,1.6800947189331055
0.272616286167745,1.6831700801849365
0.276523013063118,1.685941457748413
0.27115126358198016,1.6886472702026367
0.26846538884141125,1.691835641860962
0.2679770479794896,1.6949436664581299
0.26651202539372476,1.6976714134216309
0.27798803564888286,1.7003800868988037
0.2767671834940788,1.7030632495880127
0.26675619582468557,1.7061009407043457
0.2718837748748626,1.7087886333465576
0.2677328775485288,1.7114689350128174
0.26577951410084233,1.7145018577575684
0.2784763765108045,1.7171943187713623
0.2762788426321572,1.7198798656463623
0.267488707117568,1.7226049900054932
0.271395434012941,1.725675106048584
0.2672445366866072,1.7283616065979004
0.2645586619460383,1.7310826778411865
0.2787205469417653,1.7337687015533447
0.27749969478696124,1.73677659034729
0.2655353436698815,1.739501953125
0.2723721157367842,1.7421846389770508
0.26870955927237206,1.745178461074829
0.2655353436698815,1.7479031085968018
0.28042973995849096,1.7505841255187988
0.27774386521792205,1.7532639503479004
0.2655353436698815,1.7562861442565918
0.2723721157367842,1.7589752674102783
0.267488707117568,1.7616779804229736
0.2655353436698815,1.7644217014312744
0.2789647173727261,1.767380714416504
0.27798803564888286,1.7701263427734375
0.26651202539372476,1.7728111743927002
0.2723721157367842,1.7757980823516846
0.2672445366866072,1.7785186767578125
0.26651202539372476,1.7811975479125977
0.2792088878036869,1.7839155197143555
0.27823220607984367,1.7868926525115967
0.2652911732389207,1.7895922660827637
0.2738371383225491,1.79227876663208
0.2672445366866072,1.7950513362884521
0.2652911732389207,1.7980151176452637
0.2784763765108045,1.8007123470306396
0.27823220607984367,1.8034467697143555
0.2677328775485288,1.8061580657958984
0.2743254791844707,1.8091182708740234
0.2677328775485288,1.8118386268615723
0.2655353436698815,1.8145804405212402
0.27969722866560853,1.8175342082977295
0.2789647173727261,1.820258617401123
0.26651202539372476,1.8229382038116455
0.27359296789158827,1.8256721496582031
0.26675619582468557,1.8286769390106201
0.26675619582468557,1.8313593864440918
0.28018556952753015,1.8341162204742432
0.2789647173727261,1.8368048667907715
0.2655353436698815,1.8397645950317383
0.27505799047735313,1.84248948097229
0.26870955927237206,1.8452095985412598
0.2672445366866072,1.8478858470916748
0.28042973995849096,1.8508796691894531
0.2794530582346477,1.8535645008087158
0.26602368453180314,1.8562822341918945
0.272616286167745,1.859281301498413
0.2655353436698815,1.8619740009307861
0.26358198022219503,1.8646960258483887
0.2772555243560004,1.8674194812774658
0.27579050177023556,1.8703794479370117
0.26211695763643017,1.8730623722076416
0.27115126358198016,1.8758163452148438
0.26407032108411665,1.878502368927002
0.2652911732389207,1.8814671039581299
0.28018556952753015,1.8842220306396484
0.27749969478696124,1.8869075775146484
0.26382615065315584,1.889617919921875
0.2738371383225491,1.8926010131835938
0.26651202539372476,1.8953392505645752
0.2672445366866072,1.898066759109497
0.28042973995849096,1.9010226726531982
0.2792088878036869,1.9037201404571533
0.26651202539372476,1.906480312347412
0.27286045659870584,1.9091689586639404
0.2645586619460383,1.9121239185333252
0.26162861677450855,1.914886713027954
0.2745696496154315,1.917576789855957
0.27310462702966665,1.920271635055542
0.258454401172018,1.92323637008667
0.2679770479794896,1.9260313510894775
0.2604077646197045,1.9287121295928955
0.25943108289586125,1.9314367771148682
0.2718837748748626,1.934446096420288
0.2694420705652545,1.937134027481079
0.2560126968624099,1.9398505687713623
0.267488707117568,1.9428014755249023
0.2601635941887437,1.9455277919769287
0.25967525332682206,1.948254108428955
0.2738371383225491,1.9509377479553223
0.27334879746062746,1.953965187072754
0.2586985716029788,1.956650972366333
0.26895372970333287,1.9593324661254883
0.2608961054816261,1.962050437927246
0.2608961054816261,1.965043306350708
0.2762788426321572,1.9677348136901855
0.27359296789158827,1.9704530239105225
0.26211695763643017,1.9731345176696777
0.27066292272005854,1.9761266708374023
0.26187278720546936,1.9788494110107422
0.26407032108411665,1.9815354347229004
0.2811622512513734,1.9845249652862549
0.27749969478696124,1.987252950668335
0.2650470028079599,1.9899451732635498
0.2738371383225491,1.9926297664642334
0.2655353436698815,1.99566650390625
0.2655353436698815,1.998361587524414
0.2794530582346477,2.0010457038879395
0.27579050177023556,2.0037691593170166
0.262361128067391,2.0067577362060547
0.27310462702966665,2.009446382522583
0.2655353436698815,2.0121688842773438
0.26358198022219503,2.0148894786834717
0.27749969478696124,2.017883777618408
0.27530216090831394,2.02057147026062
0.26211695763643017,2.023252487182617
0.2723721157367842,2.0262978076934814
0.26382615065315584,2.0289855003356934
0.2608961054816261,2.0316684246063232
0.2738371383225491,2.03442120552063
0.272616286167745,2.037386417388916
0.25943108289586125,2.04007625579834
0.2701745818581369,2.042800188064575
0.26138444634354774,2.0455169677734375
0.26211695763643017,2.0484697818756104
0.2762788426321572,2.051194906234741
0.2743254791844707,2.053926944732666
0.2606519350506653,2.0566225051879883
0.26602368453180314,2.0596368312835693
0.25943108289586125,2.06231951713562
0.26211695763643017,2.0650384426116943
0.26870955927237206,2.06803297996521
0.2721279453058234,2.07072114944458
0.2579660603100964,2.0734024047851562
0.2699304114271761,2.0761544704437256
0.26162861677450855,2.0791146755218506
0.26211695763643017,2.081838369369507
0.2770113539250396,2.0845627784729004
0.2748138200463923,2.0872509479522705
0.2577218898791356,2.090259075164795
0.27359296789158827,2.092952251434326
0.26577951410084233,2.095667600631714
0.2655353436698815,2.0984065532684326
0.2770113539250396,2.1013753414154053
0.27579050177023556,2.104095220565796
0.26211695763643017,2.1068174839019775
0.2718837748748626,2.1097748279571533
0.2633378097912342,2.1124579906463623
0.262361128067391,2.115213632583618
0.27749969478696124,2.1178958415985107
0.27530216090831394,2.1208536624908447
0.2604077646197045,2.123573064804077
0.272616286167745,2.1262898445129395
0.26382615065315584,2.128971576690674
0.2628494689293126,2.131965398788452
0.2770113539250396,2.134692430496216
0.27505799047735313,2.1373817920684814
0.2608961054816261,2.140104293823242
0.27334879746062746,2.1430647373199463
0.2633378097912342,2.1458396911621094
0.2606519350506653,2.1485280990600586
0.276523013063118,2.1514806747436523
0.2691979001342937,2.154235601425171
0.2535709925528018,2.156912088394165
0.2696862409962153,2.159592628479004
0.2628494689293126,2.162569999694824
0.26407032108411665,2.165372610092163
0.27359296789158827,2.1680538654327393
0.2743254791844707,2.170780897140503
0.26187278720546936,2.1745550632476807
0.272616286167745,2.1772475242614746
0.2655353436698815,2.179973840713501
0.27115126358198016,2.182689905166626
0.27530216090831394,2.185405731201172
0.2716396044439018,2.188127040863037
0.25918691246490044,2.190840482711792
0.2652911732389207,2.1935479640960693
0.25894274203393963,2.196321964263916
0.26138444634354774,2.199009895324707
0.2648028323769991,2.2017264366149902
0.26577951410084233,2.204442024230957
0.253326822121841,2.207118511199951
0.25723354901721396,2.2098331451416016
0.2601635941887437,2.2125132083892822
0.2716396044439018,2.215224504470825
0.28238310340617745,2.217942714691162
0.2899523867659626,2.22062349319458
0.28946404590404096,2.223306894302368
0.3014283970211207,2.226062774658203
0.2931266023684531,2.2287423610687256
0.2928824319374923,2.2314274311065674
0.30313759003784635,2.2341771125793457
0.29898669271151257,2.236863851547241
0.28897570504211934,2.2395448684692383
0.29654498840190446,2.2422778606414795
0.29410328409229636,2.244990348815918
0.2926382615065315,2.2476720809936523
0.32145037235990714,2.25039005279541
0.3324380417531436,2.253073215484619
0.3302405078744963,2.2557828426361084
0.3361005982175558,2.2585084438323975
0.3592967891588328,2.2611944675445557
0.34733243804175307,2.2639060020446777
0.34025149554388956,2.266624927520752
0.33512391649371254,2.2693123817443848
0.33121718959833957,2.271989345550537
0.32584544011720173,2.2747485637664795
0.34196068856061523,2.277430772781372
0.36100598217555846,2.280118942260742
0.34952997192040036,2.2828686237335205
0.3578317665730679,2.2855870723724365
0.3639360273470882,2.2882730960845947
0.3595409595897936,2.2910027503967285
0.3668660725186179,2.2936959266662598
0.36540104993285305,2.296438694000244
0.40031742156024896,2.2991671562194824
0.4220485899157611,2.3018476963043213
0.42986204370650705,2.3045589923858643
0.46087168843853,2.307284355163574
0.48040532291539484,2.3099653720855713
0.4728360395556097,2.3126471042633057
0.5097057746306923,2.315394639968872
0.5382737150531072,2.318077325820923
0.5224026370406545,2.3207523822784424
0.5033573434257113,2.323482036590576
0.552679770479795,2.3261969089508057
0.5502380661701869,2.3288793563842773
0.5270418752289099,2.331602096557617
0.511414967647418,2.3343214988708496
0.49871810523745563,2.3370144367218018
0.47649859602002187,2.3397676944732666
0.4708826761079232,2.3424506187438965
0.4904163105847881,2.345168113708496
0.5199609327310464,2.3478903770446777
0.5324136247100477,2.3505709171295166
0.5665974850445612,2.353254556655884
0.565620803320718,2.35601544380188
0.5595165425466977,2.3587052822113037
0.5470638505676964,2.361386299133301
0.5302160908314004,2.3641443252563477
0.5233793187644977,2.366828680038452
0.5109266267854964,2.369509696960449
0.5412037602246369,2.3722355365753174
0.5634232694420707,2.3750274181365967
0.5946770846050544,2.3777482509613037
0.6217800024417044,2.380439043045044
0.6193382981320963,2.383129358291626
0.6232450250274693,2.3858859539031982
0.6046880722744477,2.3885722160339355
0.6051764131363693,2.3912551403045654
0.6100598217555855,2.3940389156341553
0.6405811256256868,2.396733283996582
0.6508362837260409,2.3994200229644775
0.6295934562324503,2.402148485183716
0.6073739470150166,2.4048757553100586
0.590037846416799,2.4075567722320557
0.6076181174459774,2.4102847576141357
0.5983396410694666,2.4129698276519775
0.64155780734953,2.4157040119171143
0.6649981687217679,2.418426752090454
0.7069954828470273,2.421112537384033
0.7035770968135759,2.423818588256836
0.7265291173238921,2.426556348800659
0.7519228421438164,2.42923641204834
0.7372726162861678,2.4319210052490234
0.7387376388719327,2.4346845149993896
0.8080820412648029,2.4373698234558105
0.7824441460139178,2.4400529861450195
0.787327554633134,2.442776918411255
0.8361616408252961,2.4454867839813232
0.8752289097790258,2.4481561183929443
0.8742522280551825,2.450880527496338
0.8937858625320474,2.45357084274292
0.8952508851178123,2.456277847290039
0.8954950555487731,2.4589977264404297
0.8674154559882798,2.4616761207580566
0.8588694909046515,2.4643917083740234
0.8459284580637285,2.4671173095703125
0.8278598461726285,2.4698054790496826
0.8000244170430961,2.472492218017578
0.779514100842388,2.4752509593963623
0.7560737394701502,2.477933883666992
0.7648638749847394,2.480618476867676
0.8359174703943353,2.483349084854126
0.8273715053107069,2.48606538772583
0.8322549139299231,2.488745927810669
0.8183371993651569,2.491466760635376
0.8010010987669394,2.4941961765289307
0.8263948235868637,2.4968807697296143
0.8408008790135515,2.4996116161346436
0.8263948235868637,2.50229811668396
0.7988035648882921,2.505061149597168
0.778293248687584,2.50778865814209
0.7931876449761934,2.5104706287384033
0.7790257599804664,2.5131590366363525
0.7824441460139178,2.516068458557129
0.7580271029178367,2.5187647342681885
0.7340984006836773,2.521824598312378
0.7272616286167746,2.524556875228882
0.7362959345623246,2.5272743701934814
0.7179831522402638,2.530013084411621
0.718959833964107,2.532698392868042
0.7265291173238921,2.5354509353637695
0.7030887559516543,2.538203716278076
0.6994261994872422,2.5408871173858643
0.7001587107801246,2.543571710586548
0.681601758027103,2.5463404655456543
0.6559638627762179,2.5490360260009766
0.6525454767427665,2.5517184734344482
0.6337443535587841,2.554473876953125
0.6632889757050422,2.5571646690368652
0.6637773165669638,2.559847831726074
0.6806250763032597,2.5625760555267334
0.6645098278598462,2.565288543701172
0.6554755219142963,2.5679755210876465
0.6349652057135882,2.5706989765167236
0.6112806739103895,2.5733838081359863
0.6239775363203517,2.5761072635650635
0.6112806739103895,2.5788369178771973
0.6017580271029179,2.5815212726593018
0.6103039921865463,2.584247589111328
0.5929678915883287,2.586977958679199
0.5753876205591504,2.589670419692993
0.5622024172872666,2.592359781265259
0.5558539860822855,2.595139265060425
0.5460871688438531,2.597830295562744
0.5492613844463436,2.6005189418792725
0.5490172140153828,2.603241443634033
0.5624465877182274,2.60595965385437
0.5477963618605788,2.6086442470550537
0.5375412037602247,2.6113717555999756
0.5289952386765964,2.6140918731689453
0.5177633988523991,2.61677622795105
0.5031131729947504,2.6195032596588135
0.48992796972286645,2.622197389602661
0.4962764009278475,2.6249165534973145
0.529483579538518,2.6276438236236572
0.5148333536808694,2.6303317546844482
0.5236234891954585,2.633018970489502
0.5263093639360275,2.635774612426758
0.5304602612623612,2.6384661197662354
0.5121474789403004,2.6411564350128174
0.5060432181662802,2.64392352104187
0.502380661701868,2.6466104984283447
0.5148333536808694,2.6493043899536133
0.5121474789403004,2.652029514312744
0.49920644609937725,2.6547820568084717
0.4938346966182394,2.6574883460998535
0.4882187767061408,2.6602160930633545
0.49407886704920023,2.6629080772399902
0.4813820046392381,2.6656486988067627
0.49236967403247456,2.668363094329834
0.4774752777438651,2.6710503101348877
0.4774752777438651,2.6737802028656006
0.4962764009278475,2.676499128341675
0.48064949334635565,2.679187536239624
0.4730802099865705,2.6819615364074707
0.4906604810157489,2.6847662925720215
0.4845562202417286,2.687455177307129
0.4862654132584543,2.6901838779449463
0.5172750579904775,2.692863941192627
0.5214259553168112,2.695606231689453
0.5119033085093396,2.6983463764190674
0.521670125747772,2.701028823852539
0.5079965816139667,2.7037172317504883
0.49407886704920023,2.7064874172210693
0.5109266267854964,2.709171772003174
0.506287388597241,2.7118499279022217
0.493102185325357,2.7146155834198
0.4996947869612989,2.7173120975494385
0.48748626541325835,2.7200019359588623
0.4706385056769624,2.7227306365966797
0.46892931266023674,2.725451707839966
0.4606275180075692,2.7281432151794434
0.4540349163716273,2.730867624282837
0.45086070076913676,2.733555793762207
0.4430472469783908,2.7363555431365967
0.4423147356855084,2.7390856742858887
0.42742033939689894,2.7417712211608887
0.4149676474178976,2.744490146636963
0.4122817726773287,2.7472193241119385
0.41423513612501517,2.749903440475464
0.41814186302038814,2.7525827884674072
0.40227078500793545,2.7553489208221436
0.4103284092296422,2.7580385208129883
0.41618849957270165,2.7607216835021973
0.4061775119033084,2.7634527683258057
0.401538273715053,2.766169309616089
0.40227078500793545,2.7688581943511963
0.3895739225979733,2.7715835571289062
0.38371383225491384,2.7743232250213623
0.39738737638871924,2.777001142501831
0.392503967769503,2.779730796813965
0.4086192162129165,2.782414197921753
0.41814186302038814,2.7851340770721436
0.42497863508729083,2.7878611087799072
0.4215602490538395,2.790550947189331
0.4100842387986814,2.7932307720184326
0.40739836405811247,2.7960104942321777
0.3968990355267976,2.798703193664551
0.405445000610426,2.801393508911133
0.4032474667317787,2.8041629791259766
0.3915272860456598,2.8068463802337646
0.37736540104993277,2.809530258178711
0.37223782199975575,2.8122599124908447
0.36540104993285305,2.814974308013916
0.3617384934684409,2.8176817893981934
0.3556342326944206,2.820383071899414
0.3478207789036747,2.8230719566345215
0.3434257111463801,2.825822114944458
0.33976315468196794,2.828518867492676
0.34000732511292875,2.8312017917633057
0.3456232450250274,2.833951950073242
0.3382981320962031,2.836644411087036
0.32804297399584903,2.83933687210083
0.3317055304602612,2.8420677185058594
0.32340373580759363,2.8447885513305664
0.31436942986204364,2.847472667694092
0.3224270540837504,2.8501904010772705
0.32120620192894633,2.8528761863708496
0.313881089000122,2.8555917739868164
0.31729947503357336,2.8583126068115234
0.31729947503357336,2.860999584197998
0.30826516908802337,2.863687753677368
0.2999633744353558,2.8664422035217285
0.29605664753998284,2.8691306114196777
0.2970333292638261,2.871846914291382
0.3116835551214747,2.874610662460327
0.31485777072396526,2.8772974014282227
0.32120620192894633,2.8799848556518555
0.31925283848125985,2.8827130794525146
0.3246245879623977,2.885427474975586
0.31436942986204364,2.888106346130371
0.33805396166524226,2.890836000442505
0.3475766084727139,2.893526554107666
0.35343669881577333,2.896284580230713
0.40715419362715166,2.899019956588745
0.3968990355267976,2.9017064571380615
0.3937248199243071,2.9044246673583984
0.392503967769503,2.907151937484741
0.3759003784641679,2.909836769104004
0.3690636063972652,2.912518262863159
0.36735441338053954,2.915274143218994
0.36955194725918683,2.917962074279785
0.36540104993285305,2.9206464290618896
0.3553900622634598,2.923377275466919
0.3595409595897936,2.9260976314544678
0.3485532901965571,2.928783893585205
0.3712611402759125,2.931507110595703
0.419606885606153,2.93422532081604
0.4423147356855084,2.9369072914123535
0.4542790868025881,2.9396376609802246
0.4501281894762543,2.94232439994812
0.4384080087901354,2.945042610168457
0.4327920888780368,2.947767972946167
0.4493956781833719,2.9504480361938477
0.4423147356855084,2.953127384185791
0.4313270662922719,2.9558796882629395
0.43865217922109623,2.958563804626465
0.44182639482358677,2.961247205734253
0.4359663044805273,2.964085578918457
0.43376877060188,2.9667766094207764
0.42546697594921246,2.9694666862487793
0.4132584544011719,2.9721860885620117
0.4061775119033084,2.974914789199829
0.4122817726773287,2.977611780166626
0.3993407398364057,2.980320453643799
0.40446831888658275,2.983003616333008
0.4174093517275057,2.985757827758789
0.4052008301794652,2.988447427749634
0.39494567207911113,2.991130828857422
0.4086192162129165,2.993886709213257
0.4008057624221706,2.996581554412842
0.4005615919912098,2.999271869659424
0.39274813820046384,3.002004623413086
0.3961665242339152,3.0047264099121094
0.3780979123428152,3.0074119567871094
0.37883042363569763,3.010136842727661
0.37687706018801115,3.0128209590911865
0.3622268343303625,3.0155575275421143
0.36808692467342197,3.018287420272827
0.35661091441826387,3.0209696292877197
0.34659992674887063,3.023660182952881
0.36320351605420576,3.026416778564453
0.35661091441826387,3.029100179672241
0.34684409717983145,3.0317840576171875
0.3531925283848125,3.0345423221588135
0.3456232450250274,3.0372238159179688
0.3299963374435355,3.0399129390716553
0.3407398364058112,3.042635917663574
0.33292638261506524,3.0453648567199707
0.3407398364058112,3.0480520725250244
0.3544133805396166,3.0508053302764893
0.34928580148943955,3.0534932613372803
0.3361005982175558,3.056206226348877
0.3497741423513612,3.058927536010742
0.350018312782322,3.0616180896759033
0.3453790745940666,3.064328908920288
0.3597851300207544,3.0670552253723145
0.3707727994139909,3.06974458694458
0.36320351605420576,3.072432041168213
0.3832254913929922,3.0751802921295166
0.3827371505310706,3.077864408493042
0.3671102429495787,3.080548048019409
0.37223782199975575,3.083275079727173
0.3729703332926382,3.0859920978546143
0.37199365156879494,3.088679075241089
0.36027347088267603,3.0914053916931152
0.35343669881577333,3.0941200256347656
0.34000732511292875,3.0968151092529297
0.33097301916737876,3.0995495319366455
0.3361005982175558,3.1022279262542725
0.32438041753143687,3.1049442291259766
0.3224270540837504,3.107672929763794
0.33512391649371254,3.1103572845458984
0.32608961054816255,3.1130361557006836
0.3185203271883774,3.1157851219177246
0.3368331095104382,3.1184725761413574
0.32584544011720173,3.1211557388305664
0.3133927481382004,3.1239020824432373
0.337077279941399,3.126589775085449
0.3273104627029666,3.1292731761932373
0.33121718959833957,3.132000207901001
0.35343669881577333,3.134735584259033
0.3527041875228909,3.1374189853668213
0.3395189842510071,3.1401426792144775
0.3507508240752044,3.142829418182373
0.34196068856061523,3.1455790996551514
0.34000732511292875,3.1482884883880615
0.34513490416310577,3.1509718894958496
0.3439140520083017,3.1536707878112793
0.33317055304602605,3.156404972076416
0.3299963374435355,3.159191370010376
0.3221828836527896,3.161923408508301
0.30582346477841527,3.164646625518799
0.3155902820168477,3.167332172393799
0.3133927481382004,3.1700639724731445
0.2999633744353558,3.1727519035339355
0.30777682822610175,3.175476551055908
0.3063118056403369,3.178208351135254
0.30313759003784635,3.1808969974517822
0.3180319863264558,3.183579206466675
0.3187644976193382,3.186338186264038
0.30973019167378824,3.18902587890625
0.32657795141008417,3.1917126178741455
0.33512391649371254,3.1944758892059326
0.337077279941399,3.1971747875213623
0.34196068856061523,3.1998627185821533
0.3368331095104382,3.2025973796844482
0.3390306433890855,3.2066457271575928
0.33780979123428145,3.209333896636963
0.33536808692467335,3.212055206298828
0.3343914052008301,3.214777708053589
0.32608961054816255,3.217803955078125
0.32340373580759363,3.2204976081848145
0.3116835551214747,3.2231788635253906
0.31266023684531796,3.2259318828582764
0.3060676352093761,3.2288920879364014
0.3002075448663166,3.2315800189971924
0.308753509949945,3.2343380451202393
0.30533512391649364,3.237290143966675
0.2928824319374923,3.2399868965148926
0.29898669271151257,3.2427055835723877
0.294591624954218,3.24542236328125
0.2882431937492369,3.248380422592163
0.2909290684898058,3.251108407974243
0.2831156146990599,3.2538373470306396
0.28042973995849096,3.256525754928589
0.2928824319374923,3.259511947631836
0.29581247710902203,3.262195348739624
0.3116835551214747,3.264910936355591
0.31241606641435715,3.267637014389038
0.3187644976193382,3.2705888748168945
0.3065559760712977,3.2732698917388916
0.30557929434745446,3.2760181427001953
0.2977658405567085,3.278959035873413
0.28482480771578556,3.281665563583374
0.2931266023684531,3.284398078918457
0.2899523867659626,3.287078857421875
0.2862898303015504,3.2900657653808594
0.2926382615065315,3.2927498817443848
0.29874252228055176,3.2954676151275635
0.30094005615919905,3.2982053756713867
0.31656696374069093,3.301168918609619
0.3141252594310828,3.3038923740386963
0.30582346477841527,3.306640863418579
0.30313759003784635,3.309328317642212
0.2950799658161396,3.3122832775115967
0.2838481259919423,3.3150441646575928
0.29385911366133555,3.317732095718384
0.29385911366133555,3.3206872940063477
0.2831156146990599,3.323415756225586
0.2860456598705896,3.3261427879333496
0.27749969478696124,3.328829050064087
0.2694420705652545,3.3318309783935547
0.2784763765108045,3.334550380706787
0.2784763765108045,3.3372364044189453
0.27334879746062746,3.339966058731079
0.27554633133927475,3.3429276943206787
0.2672445366866072,3.3456597328186035
0.271395434012941,3.3483688831329346
0.28726651202539366,3.3510501384735107
0.2909290684898058,3.3540821075439453
0.28726651202539366,3.356773614883423
0.29874252228055176,3.3594605922698975
0.29874252228055176,3.3624496459960938
0.30557929434745446,3.36517596244812
0.3202295202051031,3.367856502532959
0.3185203271883774,3.370579719543457
0.3046026126236112,3.373530626296997
0.31241606641435715,3.376281976699829
0.304846783054572,3.379002094268799
0.30289341960688554,3.381690740585327
0.3163227933097301,3.384681224822998
0.3160786228787693,3.387403964996338
0.30728848736418013,3.3900907039642334
0.31217189598339634,3.392775535583496
0.30069588572823824,3.395805597305298
0.2933707727994139,3.398500442504883
0.3070443169332193,3.4011919498443604
0.3046026126236112,3.4042317867279053
0.2899523867659626,3.406925916671753
0.2977658405567085,3.4096367359161377
0.29385911366133555,3.412360191345215
0.3046026126236112,3.4153738021850586
0.3094860212428274,3.418111562728882
0.30753265779514094,3.4208033084869385
0.29410328409229636,3.423488140106201
0.30557929434745446,3.4265336990356445
0.29605664753998284,3.4292213916778564
0.28946404590404096,3.4319047927856445
0.3046026126236112,3.434669256210327
0.30045171529727743,3.4376301765441895
0.28970821633500177,3.440321922302246
0.30289341960688554,3.443047523498535
0.29385911366133555,3.4460320472717285
0.2999633744353558,3.4487240314483643
0.3085093395189842,3.451453924179077
0.30826516908802337,3.454464912414551
0.2909290684898058,3.4582600593566895
0.2909290684898058,3.462099075317383
0.27530216090831394,3.465031385421753
0.2882431937492369,3.467848300933838
0.28433646685386393,3.471390962600708
0.2696862409962153,3.4748787879943848
0.27798803564888286,3.4776346683502197
0.27334879746062746,3.4805192947387695
0.2811622512513734,3.4836153984069824
0.28433646685386393,3.487163782119751
0.2743254791844707,3.4903008937835693
0.28189476254425583,3.493370532989502
0.27310462702966665,3.4969120025634766
0.27969722866560853,3.5000550746917725
0.28433646685386393,3.5031137466430664
0.27505799047735313,3.506687641143799
0.2792088878036869,3.5097012519836426
0.272616286167745,3.512824535369873
0.2792088878036869,3.5161073207855225
0.290684898058845,3.519308567047119
0.2933707727994139,3.5224711894989014
0.2901965571969234,3.5259690284729004
0.2887315346111585,3.529017448425293
0.2860456598705896,3.5319931507110596
0.2931266023684531,3.5355916023254395
0.2879990233182761,3.538491725921631
0.2762788426321572,3.541236400604248
0.28751068245635447,3.544792413711548
0.281650592113295,3.547980546951294
0.29385911366133555,3.5507302284240723
0.29190575021364906,3.5534555912017822
0.27969722866560853,3.556966543197632
0.2899523867659626,3.5600719451904297
0.2833597851300207,3.5631511211395264
0.28897570504211934,3.5666937828063965
0.2931266023684531,3.56986403465271
0.28433646685386393,3.5729386806488037
0.28751068245635447,3.576425552368164
0.28213893297521664,3.579611301422119
0.28238310340617745,3.58264422416687
0.29385911366133555,3.5861778259277344
0.2887315346111585,3.5892136096954346
0.2921499206446099,3.5922350883483887
0.29385911366133555,3.595757484436035
0.28897570504211934,3.598778009414673
0.3038701013307288,3.601708173751831
0.30118422659015986,3.6052098274230957
0.285557319008668,3.6081321239471436
0.29117323892076663,3.6113803386688232
0.2860456598705896,3.6146299839019775
0.30118422659015986,3.6174092292785645
0.29849835184959095,3.620633840560913
0.28433646685386393,3.6237008571624756
0.29605664753998284,3.62699031829834
0.28897570504211934,3.629732370376587
0.2882431937492369,3.632685899734497
0.2999633744353558,3.6359596252441406
0.3016725674520815,3.6374518871307373
0.2931266023684531,3.63900089263916
0.28726651202539366,3.6405692100524902
0.2970333292638261,3.642228841781616
0.2953241362471004,3.643868923187256
0.29117323892076663,3.6456551551818848
0.2901965571969234,3.6472597122192383
0.29874252228055176,3.6487815380096436
0.3046026126236112,3.6504368782043457
0.30264924917592473,3.6518783569335938
0.3070443169332193,3.6534998416900635
0.30118422659015986,3.6553266048431396
0.29190575021364906,3.6568031311035156
0.2999633744353558,3.658404588699341
0.3038701013307288,3.6598622798919678
0.3038701013307288,3.661376714706421
0.2970333292638261,3.662895679473877
0.2950799658161396,3.664637565612793
0.3014283970211207,3.666088342666626
0.3038701013307288,3.6676177978515625
0.30118422659015986,3.6692190170288086
0.304846783054572,3.670729875564575
0.2967891588328653,3.6721017360687256
0.28946404590404096,3.673597574234009
0.2972774996947869,3.6753954887390137
0.2970333292638261,3.6769683361053467
0.2931266023684531,3.6784863471984863
0.2921499206446099,3.680044412612915
0.2931266023684531,3.6816372871398926
0.30557929434745446,3.683237075805664
0.30973019167378824,3.685117244720459
0.31021853253570986,3.6866936683654785
0.304846783054572,3.6882596015930176
0.2970333292638261,3.6898555755615234
0.299719204004395,3.691408157348633
0.3024050787449639,3.692845344543457
0.29874252228055176,3.6947238445281982
0.2950799658161396,3.6963114738464355
0.2953241362471004,3.6977968215942383
0.30264924917592473,3.699338674545288
0.3085093395189842,3.700787305831909
0.304846783054572,3.7021987438201904
0.308753509949945,3.703566551208496
0.3002075448663166,3.7051382064819336
0.29190575021364906,3.7065086364746094
0.294591624954218,3.707852602005005
0.2999633744353558,3.7091915607452393
0.29605664753998284,3.710536003112793
0.2909290684898058,3.711878776550293
0.2921499206446099,3.7132186889648438
0.2928824319374923,3.714747667312622
0.30313759003784635,3.716094493865967
0.30777682822610175,3.7174384593963623
0.30362593089976797,3.718780279159546
0.30509095348553283,3.7201218605041504
0.2980100109876693,3.721461772918701
0.2901965571969234,3.7228238582611084
0.2887315346111585,3.724331855773926
0.2967891588328653,3.7256834506988525
0.2933707727994139,3.7270264625549316
0.28921987547308015,3.7283670902252197
0.28897570504211934,3.729727268218994
0.28946404590404096,3.731067657470703
0.29654498840190446,3.7324111461639404
0.30289341960688554,3.7337496280670166
0.30069588572823824,3.7353177070617676
0.30118422659015986,3.7366645336151123
0.2921499206446099,3.739316940307617
0.2882431937492369,3.7419962882995605
0.28897570504211934,3.7449963092803955
0.28482480771578556,3.7477221488952637
0.2977658405567085,3.7504029273986816
0.29605664753998284,3.7530906200408936
0.2877548528873153,3.7561280727386475
0.2853131485777072,3.758814573287964
0.2836039555609815,3.761498212814331
0.2809180808204126,3.7645325660705566
0.294591624954218,3.767224073410034
0.2926382615065315,3.7699432373046875
0.2853131485777072,3.7726175785064697
0.28287144426809907,3.7756187915802
0.2811622512513734,3.778348445892334
0.2789647173727261,3.7810356616973877
0.2909290684898058,3.783726453781128
0.2899523867659626,3.786752462387085
0.28287144426809907,3.789435863494873
0.2811622512513734,3.7921242713928223
0.2794530582346477,3.795158624649048
0.2740813087535099,3.7978439331054688
0.28702234159443285,3.800536632537842
0.28482480771578556,3.8032751083374023
0.27554633133927475,3.806288242340088
0.2792088878036869,3.8089988231658936
0.2794530582346477,3.8117332458496094
0.27530216090831394,3.8147311210632324
0.28726651202539366,3.8174374103546143
0.2836039555609815,3.820162534713745
0.27749969478696124,3.822840452194214
0.2789647173727261,3.8258790969848633
0.27530216090831394,3.8285717964172363
0.27286045659870584,3.8312599658966064
0.28506897814674637,3.8340275287628174
0.2840922964229031,3.8369839191436768
0.27530216090831394,3.8396763801574707
0.276523013063118,3.8423995971679688
0.2743254791844707,3.8453891277313232
0.271395434012941,3.848073959350586
0.28726651202539366,3.850797414779663
0.2860456598705896,3.8534834384918213
0.2794530582346477,3.8572568893432617
0.285557319008668,3.8599843978881836
0.276523013063118,3.862700939178467
0.27530216090831394,3.8654212951660156
0.2882431937492369,3.868145227432251
0.28506897814674637,3.8708298206329346
0.2723721157367842,3.873513698577881
0.276523013063118,3.876268148422241
0.2699304114271761,3.8789548873901367
0.26626785496276395,3.8816521167755127
0.2806739103894518,3.884394407272339
0.2784763765108045,3.8870811462402344
0.2691979001342937,3.88980770111084
0.272616286167745,3.892493963241577
0.2694420705652545,3.895226001739502
0.26602368453180314,3.897946834564209
0.2794530582346477,3.900629997253418
0.27798803564888286,3.903327703475952
0.27066292272005854,3.906092643737793
0.2691979001342937,3.9087867736816406
0.2716396044439018,3.9114606380462646
0.26602368453180314,3.91420578956604
0.2762788426321572,3.916886329650879
0.276523013063118,3.9195730686187744
0.2743254791844707,3.9222943782806396
0.26602368453180314,3.9251179695129395
0.2723721157367842,3.9278013706207275
0.26675619582468557,3.9305245876312256
0.2738371383225491,3.9332010746002197
0.28042973995849096,3.9359209537506104
0.2770113539250396,3.9386403560638428
0.2655353436698815,3.9413182735443115
0.27530216090831394,3.9440324306488037
0.2677328775485288,3.9467570781707764
0.2691979001342937,3.9494409561157227
0.2792088878036869,3.9521243572235107
0.276523013063118,3.954876184463501
0.2599194237577829,3.9575531482696533
0.27310462702966665,3.960231065750122
0.26407032108411665,3.962949275970459
0.2626052984983518,3.965656042098999
0.27798803564888286,3.9683327674865723
0.2743254791844707,3.9710426330566406
0.26138444634354774,3.9737236499786377
0.2694420705652545,3.9764530658721924
0.2608961054816261,3.9791715145111084
0.25943108289586125,3.9818451404571533
0.2723721157367842,3.9845664501190186
0.2699304114271761,3.9872853755950928
0.25943108289586125,3.9899685382843018
0.2655353436698815,3.9926459789276123
0.26211695763643017,3.995408058166504
0.2601635941887437,3.998089551925659
0.27334879746062746,4.000770568847656
0.27041875228909773,4.003504514694214
0.26358198022219503,4.006227970123291
0.2626052984983518,4.008911609649658
0.2626052984983518,4.011636734008789
0.25698937858625315,4.014355897903442
0.26870955927237206,4.017042398452759
0.27359296789158827,4.01976203918457
0.26675619582468557,4.022442102432251
0.26187278720546936,4.025150537490845
0.2699304114271761,4.027872800827026
0.2645586619460383,4.030550003051758
0.2694420705652545,4.033229827880859
0.27579050177023556,4.035987615585327
0.271395434012941,4.038670539855957
0.25967525332682206,4.041351795196533
0.2679770479794896,4.044100046157837
0.2601635941887437,4.046778440475464
0.2626052984983518,4.049461841583252
0.27310462702966665,4.052187919616699
0.2721279453058234,4.054906606674194
0.2582102307410572,4.057605028152466
0.27041875228909773,4.060308456420898
0.26138444634354774,4.062987804412842
0.26187278720546936,4.065739870071411
0.27554633133927475,4.068415880203247
0.272616286167745,4.071096658706665
0.2599194237577829,4.073858261108398
0.26846538884141125,4.076550722122192
0.2606519350506653,4.079228639602661
0.25967525332682206,4.081949710845947
0.27334879746062746,4.084664583206177
0.2716396044439018,4.0873425006866455
0.2626052984983518,4.0900609493255615
0.26651202539372476,4.092748641967773
0.2633378097912342,4.095477104187012
0.2608961054816261,4.098193883895874
0.2745696496154315,4.100877285003662
0.27041875228909773,4.10356593132019
0.2655353436698815,4.1063408851623535
0.2648028323769991,4.10903000831604
0.2633378097912342,4.111707448959351
0.2608961054816261,4.11446213722229
0.2743254791844707,4.117152690887451
0.27115126358198016,4.119847774505615
0.26822121841045043,4.122576951980591
0.2633378097912342,4.125292778015137
0.2679770479794896,4.127975702285767
0.26358198022219503,4.130709171295166
0.27041875228909773,4.133392333984375
0.2743254791844707,4.1361083984375
0.271395434012941,4.138836145401001
0.2604077646197045,4.1415114402771
0.2696862409962153,4.144269704818726
0.2628494689293126,4.147072076797485
0.26651202539372476,4.149755001068115
0.27359296789158827,4.152438640594482
0.271395434012941,4.155188322067261
0.2577218898791356,4.157878160476685
0.2691979001342937,4.160562515258789
0.26162861677450855,4.163290977478027
0.2628494689293126,4.166012525558472
0.2743254791844707,4.168697357177734
0.27286045659870584,4.171418190002441
0.2586985716029788,4.17414116859436
0.26822121841045043,4.176821708679199
0.25967525332682206,4.179541110992432
0.25967525332682206,4.182223796844482
0.27359296789158827,4.18501877784729
0.2699304114271761,4.18773889541626
0.25698937858625315,4.190422534942627
0.26651202539372476,4.193108797073364
0.2606519350506653,4.195866346359253
0.25943108289586125,4.198545932769775
0.2738371383225491,4.201222896575928
0.2716396044439018,4.20399808883667
0.26187278720546936,4.206723928451538
0.2655353436698815,4.2094128131866455
0.26187278720546936,4.212141513824463
0.25967525332682206,4.214890718460083
0.27041875228909773,4.217589378356934
0.26846538884141125,4.220292329788208
0.26187278720546936,4.2229743003845215
0.2608961054816261,4.225727558135986
0.25918691246490044,4.228415250778198
0.2557685264314491,4.231092929840088
0.2655353436698815,4.233838081359863
0.2655353436698815,4.236522436141968
0.2608961054816261,4.2392048835754395
0.25479184470760585,4.241923570632935
0.2601635941887437,4.24465537071228
0.2555243560004883,4.2473304271698
0.26162861677450855,4.250055313110352
0.26602368453180314,4.252728462219238
0.26602368453180314,4.255435228347778
0.25479184470760585,4.258152008056641
0.26407032108411665,4.260836362838745
0.25747771944817477,4.263510704040527
0.2604077646197045,4.266257286071777
0.2699304114271761,4.26893424987793
0.2679770479794896,4.2716100215911865
0.2538151629837626,4.274359941482544
0.2645586619460383,4.2770469188690186
0.2560126968624099,4.279721975326538
0.25674520815529234,4.282437801361084
0.27066292272005854,4.285150527954102
0.2694420705652545,4.287832260131836
0.25674520815529234,4.2905542850494385
0.26577951410084233,4.2932288646698
0.25894274203393963,4.2959394454956055
0.2582102307410572,4.29866361618042
0.27041875228909773,4.301345109939575
0.26895372970333287,4.3040666580200195
0.258454401172018,4.306792974472046
0.26187278720546936,4.309474229812622
0.2577218898791356,4.31215238571167
0.2557685264314491,4.3149144649505615
0.26870955927237206,4.317601680755615
0.26651202539372476,4.320281505584717
0.26138444634354774,4.32300591468811
0.26187278720546936,4.325721740722656
0.26382615065315584,4.328408241271973
0.2586985716029788,4.331151008605957
0.2679770479794896,4.333874702453613
0.2679770479794896,4.3365631103515625
0.2633378097912342,4.339292526245117
0.2577218898791356,4.341976642608643
0.26187278720546936,4.344688892364502
0.2562568672933707,4.347411155700684
0.26358198022219503,4.350093841552734
0.2677328775485288,4.3527748584747314
0.2652911732389207,4.35552978515625
0.25479184470760585,4.358214378356934
0.2633378097912342,4.360891342163086
0.2562568672933707,4.363613128662109
0.2579660603100964,4.366316795349121
0.2679770479794896,4.369000196456909
0.26577951410084233,4.371712684631348
0.2518617995360761,4.374425172805786
0.2626052984983518,4.37710976600647
0.2540593334147234,4.3798322677612305
0.2540593334147234,4.382513523101807
0.2694420705652545,4.385226011276245
0.26602368453180314,4.387947082519531
0.2518617995360761,4.390635251998901
0.2633378097912342,4.393316030502319
0.2562568672933707,4.396082401275635
0.25430350384568423,4.398758411407471
0.26846538884141125,4.401443004608154
0.26602368453180314,4.404186248779297
0.2552801855695275,4.406874656677246
0.2599194237577829,4.409574270248413
0.25698937858625315,4.41227650642395
0.2538151629837626,4.414989709854126
0.26675619582468557,4.417710781097412
0.2645586619460383,4.420400381088257
0.2560126968624099,4.423079967498779
0.2577218898791356,4.4258294105529785
0.25894274203393963,4.428508281707764
0.25503601513856666,4.431183099746704
0.26577951410084233,4.433929443359375
0.26651202539372476,4.43660569190979
0.26187278720546936,4.439284086227417
0.2555243560004883,4.442004203796387
0.2606519350506653,4.444717884063721
0.2555243560004883,4.447401285171509
0.2608961054816261,4.450121641159058
0.26577951410084233,4.452797889709473
0.2630936393602734,4.45552921295166
0.25210596996703694,4.458249092102051
0.26187278720546936,4.460934162139893
0.25454767427664504,4.463610887527466
0.25967525332682206,4.466364860534668
0.27115126358198016,4.469044923782349
0.26870955927237206,4.47172737121582
0.25479184470760585,4.474477291107178
0.267488707117568,4.477166414260864
0.2579660603100964,4.479844808578491
0.25918691246490044,4.482568264007568
0.276523013063118,4.485279321670532
0.2762788426321572,4.487961292266846
0.26431449151507747,4.490687131881714
0.2745696496154315,4.493368148803711
0.267488707117568,4.496084451675415
0.2645586619460383,4.498810052871704
0.2789647173727261,4.501488924026489
0.27554633133927475,4.5042009353637695
0.2645586619460383,4.5069379806518555
0.27041875228909773,4.509621620178223
0.26577951410084233,4.512300252914429
0.26187278720546936,4.515059232711792
0.27505799047735313,4.517740964889526
0.2723721157367842,4.52042293548584
0.26407032108411665,4.523147344589233
0.2652911732389207,4.525864839553833
0.26382615065315584,4.528545618057251
0.25894274203393963,4.5312628746032715
0.2696862409962153,4.533975124359131
0.27041875228909773,4.536656141281128
0.26431449151507747,4.539378643035889
0.2586985716029788,4.5420615673065186
0.26382615065315584,4.54477334022522
0.25918691246490044,4.54749870300293
0.267488707117568,4.550214529037476
0.272616286167745,4.552908182144165
0.2694420705652545,4.555667877197266
0.25918691246490044,4.558351278305054
0.2691979001342937,4.561031818389893
0.26211695763643017,4.563760280609131
0.2672445366866072,4.566682815551758
0.2743254791844707,4.569371461868286
0.2716396044439018,4.572086811065674
0.25918691246490044,4.57482385635376
0.2694420705652545,4.577510118484497
0.26187278720546936,4.580229759216309
0.26407032108411665,4.582910060882568
0.27749969478696124,4.585654020309448
0.27530216090831394,4.588356256484985
0.26162861677450855,4.59104061126709
0.272616286167745,4.5937628746032715
0.26382615065315584,4.596473693847656
0.2633378097912342,4.599160194396973
0.27994139909656934,4.601885080337524
0.2762788426321572,4.604602336883545
0.26211695763643017,4.607285499572754
0.26675619582468557,4.6100146770477295
0.26138444634354774,4.612694263458252
0.2586985716029788,4.6154091358184814
0.272616286167745,4.618135452270508
0.27090709315101935,4.620816230773926
0.2628494689293126,4.6235034465789795
0.26846538884141125,4.626256465911865
0.26651202539372476,4.628936767578125
0.26211695763643017,4.631616115570068
0.2743254791844707,4.63437032699585
0.2723721157367842,4.637050628662109
0.2648028323769991,4.639730930328369
0.26358198022219503,4.642455577850342
0.26382615065315584,4.645190000534058
0.2608961054816261,4.6478729248046875
0.2696862409962153,4.650591611862183
0.27115126358198016,4.653275728225708
0.2672445366866072,4.6559929847717285
0.2611402759125869,4.658713340759277
0.2677328775485288,4.661392450332642
0.2628494689293126,4.6641576290130615
0.2716396044439018,4.666964054107666
0.2743254791844707,4.669647455215454
0.271395434012941,4.672323942184448
0.2608961054816261,4.675083160400391
0.2694420705652545,4.67776894569397
0.2626052984983518,4.68044638633728
0.2655353436698815,4.683171987533569
0.27554633133927475,4.685881614685059
0.2716396044439018,4.68856143951416
0.2577218898791356,4.691283702850342
0.27041875228909773,4.694021224975586
0.2626052984983518,4.6967058181762695
0.2655353436698815,4.699435710906982
0.2762788426321572,4.702114820480347
0.2745696496154315,4.704824686050415
0.2608961054816261,4.707557439804077
0.27041875228909773,4.710245609283447
0.26187278720546936,4.712923526763916
0.2626052984983518,4.715686798095703
0.2770113539250396,4.718372344970703
0.2743254791844707,4.721049547195435
0.2626052984983518,4.72376823425293
0.2694420705652545,4.726566553115845
0.26358198022219503,4.729249954223633
0.26187278720546936,4.731981039047241
0.27774386521792205,4.734696388244629
0.27505799047735313,4.737377643585205
0.267488707117568,4.740105867385864
0.27066292272005854,4.742790222167969
0.2677328775485288,4.7455034255981445
0.2648028323769991,4.748223304748535
0.27798803564888286,4.750900030136108
0.27749969478696124,4.753599166870117
0.272616286167745,4.756331920623779
0.2691979001342937,4.7590131759643555
0.2701745818581369,4.761728286743164
0.2648028323769991,4.764441967010498
0.27505799047735313,4.767117977142334
0.2784763765108045,4.769845724105835
0.27505799047735313,4.772536516189575
0.2648028323769991,4.7752525806427
0.2738371383225491,4.777975559234619
0.267488707117568,4.780658006668091
0.27115126358198016,4.783341646194458
0.2784763765108045,4.786101818084717
0.2762788426321572,4.788785934448242
0.2626052984983518,4.791466474533081
0.27505799047735313,4.7942118644714355
0.2672445366866072,4.796895265579224
0.26870955927237206,4.799578905105591
0.28042973995849096,4.80229926109314
0.27749969478696124,4.8050127029418945
0.26382615065315584,4.80769681930542
0.2718837748748626,4.810426712036133
0.26382615065315584,4.813115835189819
0.26211695763643017,4.81586217880249
0.2762788426321572,4.818589210510254
0.272616286167745,4.821271181106567
0.2599194237577829,4.823985576629639
0.2679770479794896,4.82670783996582
0.26187278720546936,4.829390048980713
0.2606519350506653,4.832067012786865
0.272616286167745,4.834824323654175
0.27066292272005854,4.837507486343384
0.26138444634354774,4.840194463729858
0.2645586619460383,4.842939615249634
0.2626052984983518,4.8456525802612305
0.2608961054816261,4.848339557647705
0.276523013063118,4.851059198379517
0.2738371383225491,4.853743553161621
0.26651202539372476,4.8564558029174805
0.2648028323769991,4.859179973602295
0.2655353436698815,4.8618645668029785
0.26138444634354774,4.864583969116211
0.2718837748748626,4.867310285568237
0.27359296789158827,4.869992733001709
0.2716396044439018,4.8726842403411865
0.2633378097912342,4.8754332065582275
0.26846538884141125,4.878115177154541
0.2626052984983518,4.880800247192383
0.2691979001342937,4.883524179458618
0.27579050177023556,4.88756537437439
0.2655353436698815,4.890300989151001
0.2696862409962153,4.892980575561523
0.267488707117568,4.895747661590576
0.2645586619460383,4.898752212524414
0.27749969478696124,4.901444435119629
0.27530216090831394,4.904162406921387
0.2655353436698815,4.907173156738281
0.27066292272005854,4.9098663330078125
0.26651202539372476,4.912555456161499
0.26382615065315584,4.915325880050659
0.276523013063118,4.91828727722168
0.27530216090831394,4.920979261398315
0.26431449151507747,4.923707723617554
0.26895372970333287,4.926424980163574
0.2648028323769991,4.929389953613281
0.2626052984983518,4.9321184158325195
0.276523013063118,4.934859275817871
0.27505799047735313,4.937557697296143
0.2645586619460383,4.940531492233276
0.2694420705652545,4.94321870803833
0.26382615065315584,4.945982456207275
0.26138444634354774,4.948935508728027
0.2740813087535099,4.951624393463135
0.2718837748748626,4.9543845653533936
0.2608961054816261,4.957072734832764
0.26577951410084233,4.960034370422363
0.26138444634354774,4.962764501571655
0.26187278720546936,4.965567350387573
0.276523013063118,4.968262434005737
0.27530216090831394,4.971262693405151
0.2633378097912342,4.973989725112915
0.27041875228909773,4.976682662963867
0.2655353436698815,4.9794087409973145
0.2626052984983518,4.982356309890747
0.27530216090831394,4.985084295272827
0.27334879746062746,4.987816572189331
0.26187278720546936,4.990775108337402
0.2694420705652545,4.993464708328247
0.26211695763643017,4.996222734451294
0.26358198022219503,4.998912572860718
0.2770113539250396,5.001909255981445
0.27530216090831394,5.00463604927063
0.2626052984983518,5.007321357727051
0.26675619582468557,5.010060548782349
0.25894274203393963,5.013021469116211
0.2560126968624099,5.0157530307769775
0.26895372970333287,5.018482208251953
0.26675619582468557,5.021230697631836
0.25430350384568423,5.024148464202881
0.26211695763643017,5.0268778800964355
0.2540593334147234,5.02956485748291
0.25039677695031126,5.032520294189453
0.2655353436698815,5.0352888107299805
0.2648028323769991,5.037982702255249
0.2530826516908802,5.0406739711761475
0.26162861677450855,5.043678522109985
0.25479184470760585,5.046398878097534
0.2560126968624099,5.04907488822937
0.27066292272005854,5.051797389984131
0.2696862409962153,5.054816484451294
0.2562568672933707,5.0575032234191895
0.2655353436698815,5.060229778289795
0.2577218898791356,5.062983512878418
0.2608961054816261,5.065937519073486
0.272616286167745,5.068626403808594
0.2738371383225491,5.0713050365448
0.26431449151507747,5.074302673339844
0.2723721157367842,5.077003479003906
0.26407032108411665,5.079690217971802
0.2626052984983518,5.082412242889404
0.2767671834940788,5.085404872894287
0.2743254791844707,5.088099718093872
0.2608961054816261,5.09083104133606
0.2694420705652545,5.093513488769531
0.26211695763643017,5.096510171890259
0.2626052984983518,5.099261283874512
0.276523013063118,5.101954221725464
0.27334879746062746,5.104743003845215
0.2577218898791356,5.107667684555054
0.2679770479794896,5.110363721847534
0.26187278720546936,5.113054037094116
0.2645586619460383,5.116103887557983
0.2860456598705896,5.1188013553619385
0.2836039555609815,5.121489524841309
0.272616286167745,5.124248504638672
0.28506897814674637,5.127216815948486
0.2770113539250396,5.129950284957886
0.2743254791844707,5.132643461227417
0.2862898303015504,5.135363578796387
0.27969722866560853,5.138366937637329
0.26407032108411665,5.141061305999756
0.27530216090831394,5.143751621246338
0.26870955927237206,5.146796703338623
0.2672445366866072,5.149493932723999
0.2806739103894518,5.1521875858306885
0.2789647173727261,5.154948949813843
0.26675619582468557,5.15790581703186
0.28042973995849096,5.160602807998657
0.27359296789158827,5.163331508636475
0.2762788426321572,5.166058301925659
0.2999633744353558,5.1690216064453125
0.2950799658161396,5.171748161315918
0.28213893297521664,5.174483060836792
0.2923940910755707,5.17716908454895
0.2811622512513734,5.180176258087158
0.28042973995849096,5.182866334915161
0.2926382615065315,5.185607671737671
0.2831156146990599,5.188583135604858
0.28433646685386393,5.191280126571655
0.290684898058845,5.194048643112183
0.28482480771578556,5.196746587753296
0.2691979001342937,5.199705362319946
0.27334879746062746,5.202443599700928
0.27334879746062746,5.2051682472229
0.25967525332682206,5.207856893539429
0.26870955927237206,5.210911989212036
0.2606519350506653,5.21360969543457
0.26138444634354774,5.216331958770752
0.2745696496154315,5.219055891036987
0.27041875228909773,5.222019195556641
0.2552801855695275,5.2247395515441895
0.26626785496276395,5.227466821670532
0.25967525332682206,5.230422735214233
0.26651202539372476,5.233116388320923
0.2794530582346477,5.235872745513916
0.2738371383225491,5.238560914993286
0.26138444634354774,5.2415220737457275
0.28433646685386393,5.244277238845825
0.27774386521792205,5.246966600418091
0.27554633133927475,5.249720096588135
0.2967891588328653,5.252694845199585
0.28677817116347204,5.255420684814453
0.27310462702966665,5.258149147033691
0.2931266023684531,5.260830879211426
0.28897570504211934,5.2637903690338135
0.2948357953851788,5.2665510177612305
0.30289341960688554,5.269233226776123
0.3089976803809058,5.272190809249878
0.30118422659015986,5.274957656860352
0.30582346477841527,5.277643442153931
0.30289341960688554,5.280329704284668
0.31729947503357336,5.283320903778076
0.33561225735563416,5.286043405532837
0.34025149554388956,5.288738012313843
0.3458674154559882,5.2914628982543945
0.3663777316566963,5.29448127746582
0.35392503967769495,5.297175407409668
0.34464656330118415,5.29989767074585
0.3546575509705774,5.30258584022522
0.3505066536442436,5.305596828460693
0.3365889390794774,5.308305740356445
0.34049566597485037,5.310994625091553
0.33121718959833957,5.314024209976196
0.3414723476986936,5.316714525222778
0.35148333536808685,5.319401025772095
0.34196068856061523,5.322126150131226
0.3343914052008301,5.325115203857422
0.3292638261506531,5.327803373336792
0.31949700891222066,5.3305323123931885
0.3107068733976315,5.333215951919556
0.3065559760712977,5.336210250854492
0.3089976803809058,5.3389363288879395
0.2967891588328653,5.3416218757629395
0.3185203271883774,5.344342231750488
0.31681113417165174,5.347339868545532
0.3317055304602612,5.350033283233643
0.34440239287022334,5.352715730667114
0.3439140520083017,5.355761289596558
0.33756562080332064,5.358453750610352
0.35197167623000847,5.361134767532349
0.3407398364058112,5.36388635635376
0.3407398364058112,5.366854429244995
0.34928580148943955,5.369563579559326
0.34025149554388956,5.372269630432129
0.3414723476986936,5.374990940093994
0.33097301916737876,5.377989292144775
0.3202295202051031,5.380683660507202
0.30997436210474905,5.383368968963623
0.3155902820168477,5.386124134063721
0.31436942986204364,5.389084815979004
0.3160786228787693,5.39177131652832
0.32633378097912336,5.39454460144043
0.33292638261506524,5.397510766983032
0.3439140520083017,5.400191307067871
0.3429373702844585,5.402918338775635
0.33292638261506524,5.4056360721588135
0.32340373580759363,5.408597230911255
0.3407398364058112,5.411331415176392
0.33536808692467335,5.414087533950806
0.3273104627029666,5.416775941848755
0.3387864729581247,5.419787645339966
0.33512391649371254,5.422467947006226
0.3251129288243193,5.425189733505249
0.32193871322182877,5.427916765213013
0.3155902820168477,5.430866718292236
0.31217189598339634,5.43357253074646
0.3182761567574166,5.436314344406128
0.3141252594310828,5.439267873764038
0.3163227933097301,5.441993951797485
0.33268221218410443,5.4447126388549805
0.3275546331339274,5.4474029541015625
0.33780979123428145,5.450406551361084
0.34684409717983145,5.453096628189087
0.34196068856061523,5.4558141231536865
0.3299963374435355,5.458545923233032
0.3412281772677328,5.461502552032471
0.3497741423513612,5.464222431182861
0.3666219020876571,5.466952800750732
0.36564522036381386,5.469645261764526
0.3712611402759125,5.4726033210754395
0.35661091441826387,5.475367307662964
0.34733243804175307,5.4780519008636475
0.33976315468196794,5.481014966964722
0.331949700891222,5.483745336532593
0.32438041753143687,5.486468076705933
0.3199853497741423,5.489153146743774
0.31656696374069093,5.492144823074341
0.32364790623855444,5.4948694705963135
0.3136369185691612,5.497568845748901
0.32364790623855444,5.500272035598755
0.34659992674887063,5.503232955932617
0.34879746062751793,5.505991458892822
0.346111585886949,5.508680582046509
0.3475766084727139,5.511372804641724
0.3544133805396166,5.514420986175537
0.3636918569161274,5.517114639282227
0.36295934562324494,5.51979923248291
0.3712611402759125,5.522794485092163
0.36027347088267603,5.525527000427246
0.3595409595897936,5.528212070465088
0.355145891832499,5.530940294265747
0.3556342326944206,5.534750938415527
0.36100598217555846,5.537458896636963
0.355145891832499,5.540194034576416
0.36540104993285305,5.542885065078735
0.364180197778049,5.545624732971191
0.36027347088267603,5.548332929611206
0.36540104993285305,5.551018238067627
0.37687706018801115,5.553737640380859
0.39079477475277735,5.556444883346558
0.4081308753509949,5.5591418743133545
0.4398730313759003,5.561866998672485
0.4423147356855084,5.564584970474243
0.4327920888780368,5.567275762557983
0.4357221340495665,5.569996356964111
0.4237577829324868,5.5726799964904785
0.41838603345134895,5.575397253036499
0.43669881577340974,5.578131437301636
0.428641191551703,5.580822706222534
0.42278110120864354,5.583507061004639
0.4174093517275057,5.586265325546265
0.40446831888658275,5.588949680328369
0.3915272860456598,5.591639518737793
0.39103894518373816,5.5943922996521
0.37931876449761925,5.597078561782837
0.3624710047613233,5.599756956100464
0.3668660725186179,5.602512836456299
0.3595409595897936,5.605432510375977
0.3429373702844585,5.608126401901245
0.33805396166524226,5.610872745513916
0.34952997192040036,5.613564491271973
0.34269319985349767,5.616290330886841
0.3363447686485166,5.61901593208313
0.326822121841045,5.621701002120972
0.3107068733976315,5.624413251876831
0.3321938713221828,5.627135753631592
0.3324380417531436,5.6298229694366455
0.3224270540837504,5.632504463195801
0.3368331095104382,5.635261535644531
0.33268221218410443,5.637943983078003
0.322915394945672,5.640624284744263
0.3292638261506531,5.643346071243286
0.3246245879623977,5.646081209182739
0.32804297399584903,5.648772954940796
0.3439140520083017,5.651494264602661
0.3407398364058112,5.654223442077637
0.3382981320962031,5.656905651092529
0.3429373702844585,5.659626245498657
0.3382981320962031,5.6623077392578125
0.3273104627029666,5.66506814956665
0.3361005982175558,5.667869806289673
0.3414723476986936,5.670551061630249
0.3270662922720058,5.673236131668091
0.3270662922720058,5.675997257232666
0.3202295202051031,5.678682804107666
0.3109510438285923,5.681363344192505
0.3094860212428274,5.684118270874023
0.304846783054572,5.686801433563232
0.30582346477841527,5.689486265182495
0.2933707727994139,5.692211389541626
0.2928824319374923,5.694939851760864
0.29581247710902203,5.697643995285034
0.2931266023684531,5.700348615646362
0.3065559760712977,5.703024625778198
0.29874252228055176,5.7057764530181885
0.2840922964229031,5.708456039428711
0.2862898303015504,5.7111427783966064
0.2789647173727261,5.713969945907593
0.2814064216823342,5.716689348220825
0.28433646685386393,5.719369173049927
0.28018556952753015,5.722103118896484
0.27090709315101935,5.72482442855835
0.2760346722011964,5.727503776550293
0.2745696496154315,5.730226278305054
0.3068001465022585,5.7329113483428955
0.3107068733976315,5.73561692237854
0.32657795141008417,5.738344430923462
0.32901965571969227,5.741026878356934
0.33048467830545714,5.743709087371826
0.322915394945672,5.7464587688446045
0.3085093395189842,5.7491514682769775
0.3141252594310828,5.751823902130127
0.30997436210474905,5.7545812129974365
0.2999633744353558,5.757265329360962
0.3038701013307288,5.759946346282959
0.30069588572823824,5.762666702270508
0.29605664753998284,5.7653844356536865
0.29874252228055176,5.768067836761475
0.2970333292638261,5.7707836627960205
0.2926382615065315,5.773467779159546
0.2899523867659626,5.77620267868042
0.2923940910755707,5.778927326202393
0.2887315346111585,5.781611442565918
0.294591624954218,5.7843334674835205
0.2948357953851788,5.787054538726807
0.28482480771578556,5.789732933044434
0.27505799047735313,5.79241943359375
0.2762788426321572,5.795175790786743
0.2926382615065315,5.797860860824585
0.2950799658161396,5.800536394119263
0.2953241362471004,5.803260326385498
0.3070443169332193,5.80597448348999
0.29581247710902203,5.808665990829468
0.2950799658161396,5.8113789558410645
0.28921987547308015,5.814098119735718
0.2831156146990599,5.816792249679565
0.2833597851300207,5.81951117515564
0.2794530582346477,5.822193622589111
0.2679770479794896,5.824906349182129
0.272616286167745,5.82762598991394
0.2650470028079599,5.830315113067627
0.26870955927237206,5.832995653152466
0.276523013063118,5.8357460498809814
0.2858014894396288,5.838423252105713
0.281650592113295,5.841101169586182
0.2809180808204126,5.843852996826172
0.27041875228909773,5.846535682678223
0.25967525332682206,5.849219799041748
0.26651202539372476,5.8519463539123535
0.26651202539372476,5.854659557342529
0.2577218898791356,5.857336044311523
0.2577218898791356,5.860057830810547
0.2508851178122329,5.862738847732544
0.2518617995360761,5.865467309951782
0.2716396044439018,5.868184566497803
0.272616286167745,5.870864152908325
0.2701745818581369,5.8735692501068115
0.27090709315101935,5.876302242279053
0.27554633133927475,5.878982305526733
0.2691979001342937,5.8816978931427
0.2809180808204126,5.884419918060303
0.2882431937492369,5.887102365493774
0.27749969478696124,5.889826059341431
0.26870955927237206,5.892502546310425
0.26822121841045043,5.895247459411621
0.25943108289586125,5.897966146469116
0.25674520815529234,5.900651693344116
0.2535709925528018,5.903333902359009
0.25210596996703694,5.906082630157471
0.2418508118666829,5.908772230148315
0.2560126968624099,5.911452293395996
0.2518617995360761,5.914222717285156
0.2538151629837626,5.916907548904419
0.26187278720546936,5.919580698013306
0.2555243560004883,5.922303915023804
0.2440483457453302,5.925110340118408
0.2655353436698815,5.927793979644775
0.2601635941887437,5.930513143539429
0.2508851178122329,5.933197498321533
0.2633378097912342,5.935906887054443
0.25698937858625315,5.938632965087891
0.24258332315956532,5.941316604614258
0.2516176291051153,5.944035768508911
0.2508851178122329,5.946812391281128
0.28018556952753015,5.949502944946289
0.2977658405567085,5.952182769775391
0.3163227933097301,5.954934597015381
0.32438041753143687,5.9576191902160645
0.3299963374435355,5.960300445556641
0.3221828836527896,5.963024854660034
0.33048467830545714,5.965740203857422
0.3429373702844585,5.968430757522583
0.34415822243926253,5.971151113510132
0.3439140520083017,5.973864316940308
0.35343669881577333,5.976547956466675
0.3617384934684409,5.979273557662964
0.3529483579538517,5.981961250305176
0.3712611402759125,5.984678268432617
0.37687706018801115,5.987393856048584
0.36100598217555846,5.990072011947632
0.36344768648516657,5.992751598358154
0.3780979123428152,5.995501756668091
0.3734586741545598,5.99819016456604
0.369307776828226,6.00087308883667
0.3683310951043828,6.003601789474487
0.36564522036381386,6.006318807601929
0.36125015260651927,6.00900411605835
0.3690636063972652,6.0117340087890625
0.35587840312538144,6.01447868347168
0.36125015260651927,6.017172336578369
0.37907459406665844,6.019903182983398
0.3688194359663044,6.022594690322876
0.35856427786595035,6.025315046310425
0.39103894518373816,6.028043746948242
0.38200463923818817,6.030725955963135
0.3785862532047368,6.033408164978027
0.3944573312171895,6.036159038543701
0.39055060432181654,6.038849592208862
0.3759003784641679,6.041548490524292
0.3800512757905017,6.044281721115112
0.3683310951043828,6.046969413757324
0.37712123061897196,6.04969048500061
0.3876205591502868,6.052377939224243
0.37907459406665844,6.055092811584473
0.36540104993285305,6.057814359664917
0.3671102429495787,6.060507774353027
0.3570992552801855,6.063194990158081
0.3475766084727139,6.065948009490967
0.35197167623000847,6.068636417388916
0.34952997192040036,6.07131814956665
0.3429373702844585,6.074076414108276
0.34489073373214496,6.076762914657593
0.34196068856061523,6.079445838928223
0.36540104993285305,6.082169532775879
0.38884141130509087,6.084888935089111
0.39055060432181654,6.08757758140564
0.405445000610426,6.090301752090454
0.40739836405811247,6.092985153198242
0.40935172750579896,6.0957019329071045
0.4012941032840922,6.098425626754761
0.40935172750579896,6.101107835769653
0.4032474667317787,6.103787899017334
0.39567818337199356,6.106541633605957
0.3876205591502868,6.109227418899536
0.3844463435477963,6.111903190612793
0.3715053107068733,6.114665746688843
0.36515687950189224,6.11735725402832
0.3668660725186179,6.120041370391846
0.3597851300207544,6.122786283493042
0.3556342326944206,6.125502347946167
0.3475766084727139,6.128187894821167
0.33561225735563416,6.13090705871582
0.32438041753143687,6.133585691452026
0.3297521670125747,6.136314630508423
0.32608961054816255,6.1390380859375
0.3116835551214747,6.141718149185181
0.331949700891222,6.14444375038147
0.3224270540837504,6.14717173576355
0.3094860212428274,6.149859189987183
0.32169454279086795,6.152539253234863
0.31266023684531796,6.155290365219116
0.29898669271151257,6.157974720001221
0.3089976803809058,6.160658121109009
0.3046026126236112,6.163389205932617
0.2967891588328653,6.166111469268799
0.308753509949945,6.168795347213745
0.3043584421926504,6.171518325805664
0.29190575021364906,6.174231767654419
0.29141740935172744,6.1769163608551025
0.28433646685386393,6.179635524749756
0.29190575021364906,6.1823248863220215
0.2950799658161396,6.185039520263672
0.2909290684898058,6.187766075134277
0.28482480771578556,6.190447807312012
0.2977658405567085,6.19313907623291
0.31949700891222066,6.195899963378906
0.31436942986204364,6.198588848114014
0.32413624710047606,6.201279163360596
0.3226712245147112,6.204031467437744
0.32120620192894633,6.206719875335693
0.3163227933097301,6.209397315979004
0.3185203271883774,6.212112665176392
0.31900866805029904,6.214828014373779
0.33341472347698686,6.217543363571167
0.3363447686485166,6.220251798629761
0.33756562080332064,6.222936391830444
0.32633378097912336,6.22569465637207
0.3317055304602612,6.228383302688599
0.3199853497741423,6.2310686111450195
0.3155902820168477,6.233782768249512
0.3253570992552801,6.236498117446899
0.32389207666951525,6.239182233810425
0.3089976803809058,6.24190354347229
0.3109510438285923,6.244622230529785
0.3187644976193382,6.2473063468933105
0.33536808692467335,6.250028133392334
0.331949700891222,6.252719163894653
0.34000732511292875,6.255457162857056
0.33048467830545714,6.258185148239136
0.3302405078744963,6.260859966278076
0.3204736906360639,6.2635416984558105
0.3163227933097301,6.266301155090332
0.3155902820168477,6.268985748291016
0.3136369185691612,6.271664142608643
0.30264924917592473,6.274416923522949
0.30826516908802337,6.277101039886475
0.30094005615919905,6.279776334762573
0.304846783054572,6.2824928760528564
0.3155902820168477,6.285207033157349
0.3199853497741423,6.287887811660767
0.32364790623855444,6.29064154624939
0.3221828836527896,6.293328523635864
0.3155902820168477,6.296040058135986
0.31046270296667067,6.298762559890747
0.3204736906360639,6.301438808441162
0.3202295202051031,6.304153919219971
0.31241606641435715,6.306879758834839
0.30557929434745446,6.309561491012573
0.3041142717616896,6.312243938446045
0.3016725674520815,6.314996719360352
0.3107068733976315,6.317691087722778
0.3107068733976315,6.320375680923462
0.3107068733976315,6.323110342025757
0.30777682822610175,6.325852632522583
0.31681113417165174,6.328536510467529
0.31192772555243553,6.331261157989502
0.3231595653766328,6.333977699279785
0.331949700891222,6.33665919303894
0.32804297399584903,6.339385986328125
0.31949700891222066,6.342062473297119
0.33756562080332064,6.344779968261719
0.32853131485777065,6.347499132156372
0.3348797460627517,6.350181341171265
0.3595409595897936,6.3528594970703125
0.3524600170919301,6.355615139007568
0.3507508240752044,6.358300447463989
0.36295934562324494,6.3609840869903564
0.35343669881577333,6.363713026046753
0.3458674154559882,6.366423845291138
0.36100598217555846,6.369099378585815
0.35856427786595035,6.371825695037842
0.3544133805396166,6.374560356140137
0.36344768648516657,6.377238750457764
0.355145891832499,6.37998104095459
0.35172750579904766,6.382662534713745
0.36295934562324494,6.3853843212127686
0.3568550848492247,6.388100862503052
0.34244902942253685,6.3907859325408936
0.3417165181296544,6.393469572067261
0.337077279941399,6.396234750747681
0.33121718959833957,6.398925542831421
0.3407398364058112,6.4016337394714355
0.3365889390794774,6.404363393783569
0.3277988035648882,6.407047510147095
0.32340373580759363,6.4097747802734375
0.3270662922720058,6.412461996078491
0.32145037235990714,6.415171384811401
0.32657795141008417,6.417906999588013
0.3251129288243193,6.420593976974487
0.3199853497741423,6.4232752323150635
0.3094860212428274,6.42603325843811
0.3085093395189842,6.428716421127319
0.30289341960688554,6.431397914886475
0.30045171529727743,6.434147834777832
0.30777682822610175,6.436835527420044
0.3021609083140031,6.439523458480835
0.28897570504211934,6.442251443862915
0.2970333292638261,6.444961309432983
0.28702234159443285,6.447919130325317
0.28213893297521664,6.4512104988098145
0.2931266023684531,6.454959869384766
0.28970821633500177,6.458073377609253
0.2948357953851788,6.46085000038147
0.2858014894396288,6.463763475418091
0.2794530582346477,6.467039108276367
0.28433646685386393,6.470011472702026
0.2831156146990599,6.472754955291748
0.27359296789158827,6.4758992195129395
0.2833597851300207,6.478883743286133
0.2762788426321572,6.481952428817749
0.2858014894396288,6.48506236076355
0.28506897814674637,6.488127946853638
0.2723721157367842,6.4913647174835205
0.28189476254425583,6.494564771652222
0.27334879746062746,6.497723340988159
0.27823220607984367,6.500805139541626
0.2836039555609815,6.5039331912994385
0.2792088878036869,6.5071210861206055
0.27554633133927475,6.510106086730957
0.27774386521792205,6.5131425857543945
0.2723721157367842,6.516345262527466
0.2887315346111585,6.519160032272339
0.28482480771578556,6.522263765335083
0.2716396044439018,6.525275707244873
0.28238310340617745,6.528318881988525
0.2770113539250396,6.531232595443726
0.28433646685386393,6.5340681076049805
0.28921987547308015,6.537212371826172
0.2836039555609815,6.540355205535889
0.2811622512513734,6.5431976318359375
0.2836039555609815,6.546170711517334
0.2809180808204126,6.5490686893463135
0.29581247710902203,6.552072286605835
0.29654498840190446,6.55524754524231
0.28506897814674637,6.558302879333496
0.2899523867659626,6.561392307281494
0.28042973995849096,6.565992832183838
0.2999633744353558,6.569288730621338
0.29874252228055176,6.572476625442505
0.28458063728482474,6.575927257537842
0.294591624954218,6.579112529754639
0.28726651202539366,6.582058668136597
0.29190575021364906,6.585693597793579
0.2928824319374923,6.5887696743011475
0.27823220607984367,6.591635465621948
0.285557319008668,6.595097541809082
0.276523013063118,6.597951889038086
0.28042973995849096,6.600888013839722
0.2860456598705896,6.604498624801636
0.2794530582346477,6.607306718826294
0.2792088878036869,6.610101222991943
0.2794530582346477,6.6132378578186035
0.27554633133927475,6.616860389709473
0.2901965571969234,6.6197192668914795
0.2882431937492369,6.622460126876831
0.272616286167745,6.625956773757935
0.2794530582346477,6.629061698913574
0.272616286167745,6.631942987442017
0.2831156146990599,6.63552451133728
0.28506897814674637,6.63866662979126
0.272616286167745,6.641806364059448
0.2814064216823342,6.645548343658447
0.2738371383225491,6.6486194133758545
0.2840922964229031,6.651733636856079
0.28433646685386393,6.655215501785278
0.27359296789158827,6.658323287963867
0.28042973995849096,6.6612749099731445
0.272616286167745,6.664870262145996
0.281650592113295,6.667967081069946
0.28433646685386393,6.670758008956909
0.28018556952753015,6.6739373207092285
0.28042973995849096,6.677174806594849
0.27749969478696124,6.680287599563599
0.27530216090831394,6.683238744735718
0.2901965571969234,6.686411142349243
0.2860456598705896,6.689610004425049
0.2699304114271761,6.692641019821167
0.27969722866560853,6.696033000946045
0.2760346722011964,6.6988208293914795
0.2909290684898058,6.701708793640137
0.2909290684898058,6.705172538757324
0.2811622512513734,6.708272695541382
0.290684898058845,6.711313009262085
0.2814064216823342,6.714856863021851
0.28921987547308015,6.718000888824463
0.2931266023684531,6.720935344696045
0.2877548528873153,6.724568128585815
0.2901965571969234,6.7277069091796875
0.2831156146990599,6.730826377868652
0.2831156146990599,6.734118938446045
0.294591624954218,6.737196683883667
0.2901965571969234,6.7404210567474365
0.2853131485777072,6.743550539016724
0.2853131485777072,6.7468485832214355
0.2833597851300207,6.749867916107178
0.2977658405567085,6.752681016921997
0.2921499206446099,6.755942344665527
0.2762788426321572,6.758655548095703
0.28726651202539366,6.761338233947754
0.2792088878036869,6.764375925064087
0.27823220607984367,6.767062425613403
0.2904407276278842,6.769779920578003
0.28751068245635447,6.772463083267212
0.27334879746062746,6.7754645347595215
0.2814064216823342,6.778188467025757
0.27359296789158827,6.7808709144592285
0.2738371383225491,6.783551454544067
0.28726651202539366,6.7865660190582275
0.2840922964229031,6.789256811141968
0.2691979001342937,6.791934490203857
0.2789647173727261,6.7949724197387695
0.2696862409962153,6.797656536102295
0.2699304114271761,6.8003387451171875
0.2831156146990599,6.803064584732056
0.27969722866560853,6.806070327758789
0.2652911732389207,6.808756589889526
0.2718837748748626,6.811471700668335
0.26382615065315584,6.814448118209839
0.26138444634354774,6.8171350955963135
0.271395434012941,6.819862365722656
0.2694420705652545,6.822548866271973
0.25503601513856666,6.825567007064819
0.26431449151507747,6.828270435333252
0.2565010377243315,6.830948829650879
0.25235014039799775,6.833668231964111
0.26358198022219503,6.836668014526367
0.2626052984983518,6.839357137680054
0.24819924307166397,6.842080354690552
0.25967525332682206,6.8450682163238525
0.2508851178122329,6.847753286361694
0.2530826516908802,6.850471019744873
0.2670003662556464,6.853151082992554
0.26431449151507747,6.856169939041138
0.25039677695031126,6.858899831771851
0.26187278720546936,6.8615803718566895
0.25430350384568423,6.864293575286865
0.2560126968624099,6.867281913757324
0.26675619582468557,6.869963884353638
0.26577951410084233,6.8726487159729
0.2513734586741545,6.875664234161377
0.2628494689293126,6.878345251083374
0.2555243560004883,6.881033658981323
0.25698937858625315,6.883758068084717
0.2696862409962153,6.886741876602173
0.2672445366866072,6.889444589614868
0.2530826516908802,6.892165899276733
0.26211695763643017,6.89490270614624
0.25430350384568423,6.897907733917236
0.2562568672933707,6.900595426559448
0.26651202539372476,6.903278350830078
0.2672445366866072,6.90603232383728
0.2530826516908802,6.908984422683716
0.2650470028079599,6.911673545837402
0.2577218898791356,6.914425373077393
0.26187278720546936,6.917376279830933
0.2723721157367842,6.920074701309204
0.2716396044439018,6.92280650138855
0.25698937858625315,6.925523519515991
0.2694420705652545,6.9284913539886475
0.2611402759125869,6.931218385696411
0.2633378097912342,6.933934450149536
0.27530216090831394,6.93661642074585
0.272616286167745,6.939588785171509
0.2579660603100964,6.942273139953613
0.2691979001342937,6.944998264312744
0.2608961054816261,6.947718620300293
0.2633378097912342,6.950680494308472
0.2738371383225491,6.953359842300415
0.2716396044439018,6.956120491027832
0.2579660603100964,6.959066867828369
0.2677328775485288,6.961794376373291
0.2599194237577829,6.9646155834198
0.2606519350506653,6.967302083969116
0.2718837748748626,6.970296859741211
0.2691979001342937,6.972985744476318
0.25479184470760585,6.97572135925293
0.26651202539372476,6.978442192077637
0.2579660603100964,6.981387615203857
0.26382615065315584,6.984104633331299
0.272616286167745,6.9868268966674805
0.2699304114271761,6.989510774612427
0.2565010377243315,6.992465496063232
0.27041875228909773,6.995224714279175
0.2633378097912342,6.997909784317017
0.2655353436698815,7.0008704662323
0.27359296789158827,7.003590822219849
0.272616286167745,7.006310939788818
0.25894274203393963,7.00898814201355
0.27066292272005854,7.011984825134277
0.26187278720546936,7.014702796936035
0.2630936393602734,7.0173845291137695
0.27334879746062746,7.0201029777526855
0.27041875228909773,7.023082971572876
0.25674520815529234,7.0258588790893555
0.267488707117568,7.028578996658325
0.2608961054816261,7.0313401222229
0.26407032108411665,7.034303665161133
0.2738371383225491,7.036994457244873
0.272616286167745,7.039688348770142
0.25967525332682206,7.042680978775024
0.2694420705652545,7.045408487319946
0.2628494689293126,7.048094034194946
0.2645586619460383,7.050827264785767
0.27505799047735313,7.053783178329468
0.27066292272005854,7.056502103805542
0.2579660603100964,7.059226036071777
0.2691979001342937,7.06191349029541
0.26187278720546936,7.064911603927612
0.26602368453180314,7.067643880844116
0.2748138200463923,7.070327281951904
0.2743254791844707,7.073086738586426
0.2599194237577829,7.074966669082642
0.2679770479794896,7.07631254196167
0.2721279453058234,7.077656984329224
0.2696862409962153,7.078998327255249
0.2648028323769991,7.080343961715698
0.26382615065315584,7.081707715988159
0.26382615065315584,7.083052158355713
0.2745696496154315,7.08455491065979
0.27530216090831394,7.08590030670166
0.27359296789158827,7.087242841720581
0.2772555243560004,7.0885865688323975
0.2694420705652545,7.0899505615234375
0.26162861677450855,7.0913002490997314
0.26651202539372476,7.092649459838867
0.27334879746062746,7.094160079956055
0.2691979001342937,7.095508337020874
0.26602368453180314,7.0968523025512695
0.26822121841045043,7.098216772079468
0.2679770479794896,7.099556922912598
0.2743254791844707,7.100898027420044
0.2814064216823342,7.102238416671753
0.276523013063118,7.10357928276062
0.27994139909656934,7.105083703994751
0.27334879746062746,7.106452703475952
0.2655353436698815,7.107797861099243
0.267488707117568,7.109140396118164
0.27530216090831394,7.110482692718506
0.27286045659870584,7.111826419830322
0.26870955927237206,7.113165378570557
0.26602368453180314,7.114690065383911
0.26651202539372476,7.116035461425781
0.2745696496154315,7.1173789501190186
0.28018556952753015,7.1187238693237305
0.2772555243560004,7.120068073272705
0.2794530582346477,7.121418237686157
0.27530216090831394,7.12279486656189
0.267488707117568,7.124161005020142
0.26577951410084233,7.125653028488159
0.2745696496154315,7.127001762390137
0.27310462702966665,7.128347158432007
0.26895372970333287,7.129709243774414
0.2677328775485288,7.131052494049072
0.2677328775485288,7.132391929626465
0.27310462702966665,7.133737087249756
0.2814064216823342,7.135243892669678
0.2784763765108045,7.136592626571655
0.2811622512513734,7.137957334518433
0.27774386521792205,7.139302015304565
0.27041875228909773,7.140645503997803
0.2655353436698815,7.141989231109619
0.27505799047735313,7.143331527709961
0.27554633133927475,7.144701957702637
0.2723721157367842,7.146224737167358
0.27066292272005854,7.147569894790649
0.27334879746062746,7.148913860321045
0.27774386521792205,7.150258541107178
0.28677817116347204,7.151601791381836
0.28482480771578556,7.152947425842285
0.28506897814674637,7.154326915740967
0.2853131485777072,7.1558146476745605
0.2770113539250396,7.1571619510650635
0.27066292272005854,7.1585071086883545
0.2792088878036869,7.15985107421875
0.2809180808204126,7.161195516586304
0.27749969478696124,7.162557125091553
0.2745696496154315,7.163918495178223
0.2748138200463923,7.1652607917785645
0.27749969478696124,7.166741609573364
0.2882431937492369,7.168089151382446
0.2879990233182761,7.169434070587158
0.2862898303015504,7.170794486999512
0.2877548528873153,7.172136068344116
0.2811622512513734,7.173478841781616
0.27359296789158827,7.174840927124023
0.28287144426809907,7.177617073059082
0.276523013063118,7.180327415466309
0.2743254791844707,7.183018684387207
0.28702234159443285,7.1857757568359375
0.2840922964229031,7.188739061355591
0.272616286167745,7.191438674926758
0.276523013063118,7.1942384243011475
0.2718837748748626,7.197278738021851
0.27115126358198016,7.199974298477173
0.28433646685386393,7.202700614929199
0.28213893297521664,7.205420970916748
0.2696862409962153,7.209155797958374
0.2762788426321572,7.211885452270508
0.2677328775485288,7.214622974395752
0.26870955927237206,7.217310667037964
0.2814064216823342,7.220036506652832
0.2794530582346477,7.222743511199951
0.2648028323769991,7.22552490234375
0.27530216090831394,7.2282397747039795
0.26675619582468557,7.230921030044556
0.2679770479794896,7.233642101287842
0.28433646685386393,7.236456871032715
0.28189476254425583,7.239140510559082
0.2691979001342937,7.241870403289795
0.27749969478696124,7.244597434997559
0.2691979001342937,7.247284412384033
0.2672445366866072,7.250006675720215
0.2814064216823342,7.2526891231536865
0.27798803564888286,7.255407333374023
0.2672445366866072,7.258123874664307
0.2743254791844707,7.260806560516357
0.2694420705652545,7.263493537902832
0.2652911732389207,7.266253471374512
0.27823220607984367,7.268946409225464
0.27530216090831394,7.271633863449097
0.26675619582468557,7.274386882781982
0.2672445366866072,7.2771008014678955
0.26675619582468557,7.279794454574585
0.2628494689293126,7.2825233936309814
0.272616286167745,7.2852489948272705
0.272616286167745,7.2879369258880615
0.2694420705652545,7.290667533874512
0.26382615065315584,7.29334831237793
0.2679770479794896,7.296062231063843
0.26211695763643017,7.298792123794556
0.2679770479794896,7.301479816436768
0.27115126358198016,7.304203510284424
0.26675619582468557,7.306932687759399
0.25723354901721396,7.309622049331665
0.2652911732389207,7.312312602996826
0.2586985716029788,7.315074682235718
0.26162861677450855,7.317765951156616
0.27066292272005854,7.320446729660034
0.26846538884141125,7.323185920715332
0.25430350384568423,7.325918197631836
0.26651202539372476,7.328611850738525
0.2586985716029788,7.331343173980713
0.25967525332682206,7.334086179733276
0.272616286167745,7.336772680282593
0.2694420705652545,7.339507579803467
0.25479184470760585,7.3421950340271
0.26651202539372476,7.344914674758911
0.2579660603100964,7.347636938095093
0.25943108289586125,7.35032320022583
0.2738371383225491,7.353010416030884
0.2701745818581369,7.35577654838562
0.25698937858625315,7.358462572097778
0.2648028323769991,7.361152410507202
0.25943108289586125,7.363910913467407
0.2577218898791356,7.366603851318359
0.271395434012941,7.369298934936523
0.2694420705652545,7.3720314502716064
0.2599194237577829,7.3748650550842285
0.2650470028079599,7.377925395965576
0.2601635941887437,7.380824565887451
0.25747771944817477,7.383519649505615
0.2699304114271761,7.386291742324829
0.26846538884141125,7.388982772827148
0.2562568672933707,7.391667366027832
0.2630936393602734,7.394445419311523
0.2579660603100964,7.3971312046051025
0.2555243560004883,7.39982271194458
0.26870955927237206,7.402575969696045
0.26577951410084233,7.405288219451904
0.25723354901721396,7.407979488372803
0.2599194237577829,7.410709619522095
0.26187278720546936,7.413396120071411
0.2557685264314491,7.416115999221802
0.26822121841045043,7.418844938278198
0.26577951410084233,7.421534538269043
0.26162861677450855,7.424278497695923
0.2599194237577829,7.427017688751221
0.26187278720546936,7.4297096729278564
0.2586985716029788,7.43239951133728
0.27066292272005854,7.435160398483276
0.2699304114271761,7.437850713729858
0.26870955927237206,7.440539360046387
0.26162861677450855,7.443275451660156
0.2677328775485288,7.446002721786499
0.26187278720546936,7.448690176010132
0.26870955927237206,7.451416492462158
0.2740813087535099,7.454157829284668
0.2699304114271761,7.456845760345459
0.2599194237577829,7.459575176239014
0.27041875228909773,7.462265491485596
0.26382615065315584,7.464988708496094
0.26431449151507747,7.467718124389648
0.2716396044439018,7.47040581703186
0.27041875228909773,7.473092794418335
0.2555243560004883,7.475850343704224
0.26675619582468557,7.478537559509277
0.2586985716029788,7.481217384338379
0.25967525332682206,7.483968496322632
0.27334879746062746,7.486658334732056
0.27066292272005854,7.489341974258423
0.2579660603100964,7.492058038711548
0.2677328775485288,7.494776010513306
0.26138444634354774,7.497463941574097
0.26211695763643017,7.500190019607544
0.27554633133927475,7.502874374389648
0.27359296789158827,7.50560736656189
0.26358198022219503,7.508312463760376
0.2694420705652545,7.511006116867065
0.26602368453180314,7.513730049133301
0.26211695763643017,7.51643705368042
0.27530216090831394,7.519127607345581
0.272616286167745,7.521852493286133
0.2645586619460383,7.524590730667114
0.26602368453180314,7.527283430099487
0.2648028323769991,7.530025482177734
0.2628494689293126,7.5327160358428955
0.2716396044439018,7.535439729690552
0.27115126358198016,7.538165330886841
0.2648028323769991,7.54085373878479
0.2599194237577829,7.543535947799683
0.26382615065315584,7.546292066574097
0.2599194237577829,7.54897928237915
0.26846538884141125,7.551668405532837
0.2718837748748626,7.554425001144409
0.2694420705652545,7.557115077972412
0.2601635941887437,7.559800148010254
0.2694420705652545,7.562529563903809
0.2628494689293126,7.565248966217041
0.2655353436698815,7.5679426193237305
0.27334879746062746,7.570671319961548
0.2718837748748626,7.573359966278076
0.2582102307410572,7.576097011566162
0.26870955927237206,7.578826189041138
0.2611402759125869,7.581510782241821
0.26358198022219503,7.58423376083374
0.2760346722011964,7.586963653564453
0.27359296789158827,7.589653730392456
0.25943108289586125,7.592340469360352
0.2716396044439018,7.595102787017822
0.26358198022219503,7.597794532775879
0.26358198022219503,7.60048508644104
0.27749969478696124,7.603211402893066
0.27530216090831394,7.605931282043457
0.262361128067391,7.608612775802612
0.2694420705652545,7.61133885383606
0.26211695763643017,7.614054918289185
0.25943108289586125,7.616743564605713
0.272616286167745,7.619467258453369
0.2694420705652545,7.6221864223480225
0.25943108289586125,7.624917984008789
0.26382615065315584,7.627650737762451
0.2608961054816261,7.630336284637451
0.25967525332682206,7.633015155792236
0.272616286167745,7.6357738971710205
0.2679770479794896,7.638458728790283
0.2626052984983518,7.641139984130859
0.2645586619460383,7.64391016960144
0.26626785496276395,7.6465904712677
0.2608961054816261,7.649275541305542
0.2701745818581369,7.651993989944458
0.2696862409962153,7.654706239700317
0.26577951410084233,7.6574037075042725
0.2599194237577829,7.660128593444824
0.26602368453180314,7.662808656692505
0.26138444634354774,7.665538311004639
0.2672445366866072,7.668239116668701
0.2718837748748626,7.6709253787994385
0.2699304114271761,7.673640012741089
0.2579660603100964,7.676355838775635
0.2670003662556464,7.679084300994873
0.2601635941887437,7.681893348693848
0.26382615065315584,7.6848061084747314
0.27359296789158827,7.687495231628418
0.2716396044439018,7.690215826034546
0.2582102307410572,7.692903995513916
0.2694420705652545,7.695645093917847
0.26162861677450855,7.698371410369873
0.26407032108411665,7.701047897338867
0.27530216090831394,7.703732252120972
0.2716396044439018,7.7064855098724365
0.25698937858625315,7.709171772003174
0.2691979001342937,7.711853981018066
0.26138444634354774,7.714605331420898
0.2633378097912342,7.717284202575684
0.27798803564888286,7.71996283531189
0.27554633133927475,7.722682952880859
0.26138444634354774,7.7254109382629395
0.27041875228909773,7.728094577789307
0.2655353436698815,7.730832099914551
0.26162861677450855,7.733513116836548
0.27505799047735313,7.736325740814209
0.2716396044439018,7.739048004150391
0.25943108289586125,7.741735935211182
0.26675619582468557,7.744445085525513
0.26407032108411665,7.7471764087677
0.2608961054816261,7.749859571456909
0.27359296789158827,7.752544403076172
0.27115126358198016,7.7553019523620605
0.26187278720546936,7.757986068725586
0.2645586619460383,7.760670900344849
0.2672445366866072,7.763392925262451
0.26407032108411665,7.766111373901367
0.2694420705652545,7.7688069343566895
0.26870955927237206,7.771533966064453
0.2652911732389207,7.7742533683776855
0.2601635941887437,7.776931047439575
0.2648028323769991,7.779651403427124
0.2579660603100964,7.782325744628906
0.2648028323769991,7.785042762756348
0.2696862409962153,7.78776216506958
0.2655353436698815,7.79044508934021
0.25479184470760585,7.793125629425049
0.26407032108411665,7.795880556106567
0.25747771944817477,7.7985687255859375
0.2611402759125869,7.801253318786621
0.27115126358198016,7.804002523422241
0.26870955927237206,7.80668306350708
0.25430350384568423,7.809359550476074
0.26651202539372476,7.812082767486572
0.2579660603100964,7.814814329147339
0.2577218898791356,7.8175249099731445
0.27066292272005854,7.820227384567261
0.2679770479794896,7.822908639907837
0.2540593334147234,7.825656175613403
0.2648028323769991,7.828348875045776
0.2577218898791356,7.831029891967773
0.2579660603100964,7.833750247955322
0.27334879746062746,7.836467027664185
0.271395434012941,7.839150667190552
0.25967525332682206,7.841870069503784
0.26651202539372476,7.844588756561279
0.26187278720546936,7.8472678661346436
0.2586985716029788,7.849998950958252
0.271395434012941,7.852685928344727
0.26846538884141125,7.8554041385650635
0.2608961054816261,7.858128309249878
0.2626052984983518,7.860816955566406
0.2608961054816261,7.863502502441406
0.2560126968624099,7.866257905960083
0.2672445366866072,7.8689470291137695
0.2655353436698815,7.871632099151611
0.25967525332682206,7.874384880065918
0.2560126968624099,7.8770623207092285
0.2604077646197045,7.879745006561279
0.2555243560004883,7.882469654083252
0.2648028323769991,7.885191202163696
0.2699304114271761,7.887878656387329
0.2652911732389207,7.89060115814209
0.25747771944817477,7.8932859897613525
0.2655353436698815,7.896020412445068
0.2608961054816261,7.89874005317688
0.26870955927237206,7.901415586471558
0.2762788426321572,7.904130220413208
0.2770113539250396,7.906845808029175
0.2633378097912342,7.909533977508545
0.2762788426321572,7.912217855453491
0.267488707117568,7.914995193481445
0.26870955927237206,7.917677879333496
0.2811622512513734,7.920376300811768
0.27749969478696124,7.92317271232605
0.2626052984983518,7.9259727001190186
0.2738371383225491,7.928657054901123
0.2648028323769991,7.931387901306152
0.26382615065315584,7.9341347217559814
0.27749969478696124,7.936819314956665
0.27505799047735313,7.939547061920166
0.26187278720546936,7.942225217819214
0.271395434012941,7.944948673248291
0.26407032108411665,7.947676181793213
0.2626052984983518,7.950361490249634
0.2745696496154315,7.953045845031738
0.272616286167745,7.955805063247681
0.25967525332682206,7.958489656448364
0.26407032108411665,7.9611711502075195
0.2599194237577829,7.963917255401611
0.2577218898791356,7.966628074645996
0.27334879746062746,7.969317436218262
0.2691979001342937,7.972039699554443
0.2626052984983518,7.9747583866119385
0.26358198022219503,7.977438449859619
0.2628494689293126,7.980156898498535
0.2586985716029788,7.982831954956055
0.2696862409962153,7.985559463500977
0.27115126358198016,7.988266468048096
0.2672445366866072,7.990949630737305
0.2608961054816261,7.9936628341674805
0.26577951410084233,7.9963767528533936
0.2608961054816261,7.999057769775391
0.26602368453180314,8.001779079437256
0.27115126358198016,8.004490852355957
0.26870955927237206,8.007171154022217
0.25674520815529234,8.009901762008667
0.2655353436698815,8.012592554092407
0.2586985716029788,8.015305995941162
0.2601635941887437,8.018033266067505
0.2679770479794896,8.020711421966553
0.26651202539372476,8.02338457107544
0.253326822121841,8.026139259338379
0.2652911732389207,8.028837203979492
0.25698937858625315,8.031512975692749
0.2579660603100964,8.034276962280273
0.27115126358198016,8.03695821762085
0.26870955927237206,8.039636850357056
0.2557685264314491,8.042360544204712
0.26675619582468557,8.045073747634888
0.2582102307410572,8.047751903533936
0.2582102307410572,8.050477504730225
0.27334879746062746,8.053162336349487
0.27041875228909773,8.05589771270752
0.25943108289586125,8.058616161346436
0.26602368453180314,8.061302661895752
0.2633378097912342,8.06402039527893
0.2599194237577829,8.066747665405273
0.2718837748748626,8.06943655014038
0.2691979001342937,8.07211947441101
0.2645586619460383,8.074877262115479
0.26651202539372476,8.07756233215332
0.2655353436698815,8.080246925354004
0.26187278720546936,8.082971572875977
0.2723721157367842,8.08569073677063
0.271395434012941,8.088374137878418
0.26651202539372476,8.091093063354492
0.2608961054816261,8.093773603439331
0.26577951410084233,8.096477508544922
0.2606519350506653,8.099199295043945
0.26651202539372476,8.10188102722168
0.2699304114271761,8.104592323303223
0.267488707117568,8.107317209243774
0.25674520815529234,8.110001802444458
0.2648028323769991,8.112680912017822
0.25918691246490044,8.115433931350708
0.26138444634354774,8.118120431900024
0.2716396044439018,8.120807409286499
0.2696862409962153,8.12352728843689
0.2555243560004883,8.126235961914062
0.26651202539372476,8.128921747207642
0.2579660603100964,8.131650686264038
0.25943108289586125,8.134367942810059
0.272616286167745,8.137051105499268
0.271395434012941,8.139775514602661
0.2577218898791356,8.142460107803345
0.2679770479794896,8.145193099975586
0.2606519350506653,8.147917747497559
0.2628494689293126,8.150602102279663
0.27749969478696124,8.153279304504395
0.27579050177023556,8.156031131744385
0.26431449151507747,8.158713340759277
0.2699304114271761,8.1613929271698
0.2650470028079599,8.164238691329956
0.26407032108411665,8.166919708251953
0.27530216090831394,8.169660329818726
0.2723721157367842,8.172346591949463
0.26358198022219503,8.175089597702026
0.26602368453180314,8.177807807922363
0.2650470028079599,8.18049168586731
0.2601635941887437,8.18317723274231
0.27359296789158827,8.18593168258667
0.2716396044439018,8.18862009048462
0.26577951410084233,8.191297769546509
0.2626052984983518,8.194055557250977
0.2645586619460383,8.196734428405762
0.25967525332682206,8.199417114257812
0.26822121841045043,8.20213270187378
0.2694420705652545,8.204846858978271
0.2677328775485288,8.207526922225952
0.25967525332682206,8.21024489402771
0.2670003662556464,8.212925672531128
0.2608961054816261,8.215635061264038
0.2652911732389207,8.21836256980896
0.2723721157367842,8.22104549407959
0.26870955927237206,8.223728895187378
0.2555243560004883,8.226480960845947
0.2655353436698815,8.229187726974487
0.2579660603100964,8.23187518119812
0.2586985716029788,8.234650611877441
0.2696862409962153,8.237333059310913
0.2679770479794896,8.240014791488647
0.2538151629837626,8.242740392684937
0.2648028323769991,8.246783256530762
0.2577218898791356,8.249473094940186
0.2691979001342937,8.252193212509155
0.27041875228909773,8.254907131195068
0.26602368453180314,8.257901668548584
0.2608961054816261,8.260586977005005
0.2645586619460383,8.263273239135742
0.2599194237577829,8.26602816581726
0.267488707117568,8.268984079360962
0.271395434012941,8.271664381027222
0.26358198022219503,8.27442193031311
0.25674520815529234,8.277379751205444
0.2626052984983518,8.280068635940552
0.2579660603100964,8.282783031463623
0.26651202539372476,8.28549861907959
0.26822121841045043,8.288454055786133
0.26431449151507747,8.291178703308105
0.25943108289586125,8.293904781341553
0.26382615065315584,8.29658055305481
0.25967525332682206,8.299577236175537
0.27041875228909773,8.302268505096436
0.27041875228909773,8.304987907409668
0.267488707117568,8.30770468711853
0.2630936393602734,8.310664892196655
0.26675619582468557,8.313379049301147
0.26162861677450855,8.316140413284302
0.26846538884141125,8.319100141525269
0.27115126358198016,8.321828603744507
0.2655353436698815,8.324549913406372
0.2601635941887437,8.327231407165527
0.2648028323769991,8.330243825912476
0.25967525332682206,8.332936763763428
0.27041875228909773,8.335667133331299
0.27115126358198016,8.338395595550537
0.26675619582468557,8.341348886489868
0.2633378097912342,8.344072818756104
0.26651202539372476,8.346796989440918
0.2626052984983518,8.349480390548706
0.27359296789158827,8.352438688278198
0.2738371383225491,8.355191946029663
0.2672445366866072,8.357882022857666
0.2608961054816261,8.360834836959839
0.2648028323769991,8.363559484481812
0.2601635941887437,8.366276979446411
0.27041875228909773,8.368955612182617
0.27530216090831394,8.371947288513184
0.26846538884141125,8.374670028686523
0.2648028323769991,8.377356767654419
0.26675619582468557,8.380078077316284
0.2626052984983518,8.383035898208618
0.272616286167745,8.385795831680298
0.272616286167745,8.388479232788086
0.26846538884141125,8.391165733337402
0.26382615065315584,8.394211292266846
0.2655353436698815,8.396899938583374
0.26211695763643017,8.399579048156738
0.2723721157367842,8.402579545974731
0.2748138200463923,8.40530800819397
0.2721279453058234,8.407997608184814
0.26870955927237206,8.410725593566895
0.272616286167745,8.413689374923706
0.26870955927237206,8.41643476486206
0.27798803564888286,8.41916275024414
0.2789647173727261,8.42185115814209
0.27310462702966665,8.424843788146973
0.2716396044439018,8.42759394645691
0.272616286167745,8.430288076400757
0.2679770479794896,8.432972192764282
0.2792088878036869,8.435999870300293
0.28042973995849096,8.438691139221191
0.272616286167745,8.441380977630615
0.26870955927237206,8.444406032562256
0.2699304114271761,8.447091579437256
0.26407032108411665,8.449812412261963
0.2760346722011964,8.4524986743927
0.27554633133927475,8.455488204956055
0.2699304114271761,8.45821475982666
0.267488707117568,8.460896253585815
0.26870955927237206,8.463579893112183
0.2652911732389207,8.466609001159668
0.276523013063118,8.469296932220459
0.2745696496154315,8.471972703933716
0.2699304114271761,8.474725008010864
0.2677328775485288,8.477684736251831
0.26870955927237206,8.480366230010986
0.2628494689293126,8.483087301254272
0.2743254791844707,8.486076593399048
0.27530216090831394,8.488765716552734
0.2691979001342937,8.491496086120605
0.26602368453180314,8.494216442108154
0.26846538884141125,8.497172117233276
0.2645586619460383,8.499906301498413
0.27530216090831394,8.50259518623352
0.2743254791844707,8.5053071975708
0.267488707117568,8.508301258087158
0.26602368453180314,8.510982275009155
0.26822121841045043,8.513702869415283
0.26407032108411665,8.5164213180542
0.27554633133927475,8.519373178482056
0.27359296789158827,8.522099018096924
0.2672445366866072,8.524814367294312
0.2633378097912342,8.527760982513428
0.26187278720546936,8.530505657196045
0.25454767427664504,8.533192873001099
