semg,time
0.2909290684898058,0.0031206607818603516
0.276523013063118,0.0058481693267822266
0.2853131485777072,0.008547544479370117
0.2745696496154315,0.011334657669067383
0.2718837748748626,0.014038562774658203
0.2862898303015504,0.01674032211303711
0.28506897814674637,0.0195620059967041
0.2694420705652545,0.02228569984436035
0.2838481259919423,0.024997711181640625
0.27530216090831394,0.027698755264282227
0.2740813087535099,0.03043818473815918
0.2887315346111585,0.03314375877380371
0.2860456598705896,0.035851478576660156
0.27359296789158827,0.038552045822143555
0.2840922964229031,0.04128718376159668
0.2762788426321572,0.043988704681396484
0.2762788426321572,0.04668903350830078
0.29141740935172744,0.04942011833190918
0.28726651202539366,0.05212044715881348
0.2745696496154315,0.05482077598571777
0.28482480771578556,0.05752301216125488
0.2862898303015504,0.0602574348449707
0.2833597851300207,0.06295514106750488
0.2972774996947869,0.06565380096435547
0.294591624954218,0.06835079193115234
0.285557319008668,0.07108330726623535
0.2882431937492369,0.0737919807434082
0.2899523867659626,0.07649850845336914
0.2860456598705896,0.07919669151306152
0.29630081797094365,0.08193016052246094
0.29605664753998284,0.08462667465209961
0.29117323892076663,0.08732986450195312
0.2853131485777072,0.09005284309387207
0.2921499206446099,0.09275150299072266
0.2862898303015504,0.09545564651489258
0.29117323892076663,0.09815382957458496
0.2950799658161396,0.10088682174682617
0.2909290684898058,0.10358738899230957
0.27994139909656934,0.10628914833068848
0.2884873641801977,0.10899209976196289
0.2814064216823342,0.1117241382598877
0.2831156146990599,0.11442232131958008
0.2948357953851788,0.1171262264251709
0.2899523867659626,0.11986136436462402
0.27530216090831394,0.12257003784179688
0.28751068245635447,0.12527918815612793
0.2792088878036869,0.1279890537261963
0.2794530582346477,0.1307663917541504
0.2928824319374923,0.13347625732421875
0.28921987547308015,0.1361842155456543
0.2743254791844707,0.13887715339660645
0.2860456598705896,0.14161396026611328
0.276523013063118,0.14432144165039062
0.27823220607984367,0.14702844619750977
0.2967891588328653,0.1497948169708252
0.2950799658161396,0.15250182151794434
0.28506897814674637,0.15520501136779785
0.29581247710902203,0.15790939331054688
0.28970821633500177,0.16064977645874023
0.2899523867659626,0.16336655616760254
0.308753509949945,0.1660752296447754
0.308753509949945,0.16877961158752441
0.3016725674520815,0.17151618003845215
0.3065559760712977,0.1742258071899414
0.30313759003784635,0.17693448066711426
0.29849835184959095,0.1796729564666748
0.31046270296667067,0.18238306045532227
0.3068001465022585,0.18508219718933105
0.2977658405567085,0.18779277801513672
0.2972774996947869,0.1905231475830078
0.2975216701257477,0.19322705268859863
0.2933707727994139,0.19593548774719238
0.30094005615919905,0.19864988327026367
0.3024050787449639,0.20139074325561523
0.2972774996947869,0.20409417152404785
0.2928824319374923,0.20680665969848633
0.29605664753998284,0.2095487117767334
0.28970821633500177,0.21225929260253906
0.2977658405567085,0.2149643898010254
0.3019167378830423,0.21767163276672363
0.2970333292638261,0.2204146385192871
0.28653400073251123,0.22313761711120605
0.2953241362471004,0.22583746910095215
0.28921987547308015,0.22853946685791016
0.294591624954218,0.2313539981842041
0.30045171529727743,0.2340679168701172
0.29874252228055176,0.23677539825439453
0.2860456598705896,0.23952388763427734
0.2972774996947869,0.24223589897155762
0.28946404590404096,0.24493980407714844
0.2926382615065315,0.24764657020568848
0.3043584421926504,0.25040245056152344
0.30094005615919905,0.25310540199279785
0.2853131485777072,0.25580811500549316
0.2970333292638261,0.25850987434387207
0.2887315346111585,0.26125359535217285
0.2882431937492369,0.26395726203918457
0.30289341960688554,0.2666656970977783
0.30045171529727743,0.26940441131591797
0.2853131485777072,0.2721107006072998
0.29581247710902203,0.27481985092163086
0.2882431937492369,0.2775266170501709
0.28726651202539366,0.28026533126831055
0.3019167378830423,0.2829725742340088
0.2992308631424734,0.2856743335723877
0.28726651202539366,0.2883784770965576
0.2931266023684531,0.2911415100097656
0.28702234159443285,0.2938578128814697
0.28458063728482474,0.2965664863586426
0.2977658405567085,0.2992970943450928
0.2950799658161396,0.3020038604736328
0.2853131485777072,0.30470705032348633
0.28726651202539366,0.30741381645202637
0.28482480771578556,0.3101482391357422
0.2784763765108045,0.3128538131713867
0.28970821633500177,0.31555771827697754
0.28751068245635447,0.31825971603393555
0.2831156146990599,0.32100439071655273
0.2814064216823342,0.3237276077270508
0.28433646685386393,0.3264486789703369
0.2794530582346477,0.3291645050048828
0.2887315346111585,0.3319120407104492
0.2899523867659626,0.33461880683898926
0.28482480771578556,0.3373246192932129
0.27749969478696124,0.34006309509277344
0.2831156146990599,0.3427705764770508
0.2767671834940788,0.34549760818481445
0.281650592113295,0.34822797775268555
0.28726651202539366,0.3509793281555176
0.2836039555609815,0.3536820411682129
0.27310462702966665,0.35638999938964844
0.28287144426809907,0.35909414291381836
0.27579050177023556,0.3618316650390625
0.276523013063118,0.3645365238189697
0.2860456598705896,0.36723971366882324
0.2836039555609815,0.37000060081481934
0.2691979001342937,0.37270212173461914
0.28213893297521664,0.3754079341888428
0.2740813087535099,0.3781142234802246
0.27530216090831394,0.38085389137268066
0.28970821633500177,0.3835639953613281
0.28702234159443285,0.3862743377685547
0.272616286167745,0.3889803886413574
0.28482480771578556,0.3917269706726074
0.2762788426321572,0.39443492889404297
0.2745696496154315,0.3971438407897949
0.28921987547308015,0.39988136291503906
0.28726651202539366,0.40259671211242676
0.2743254791844707,0.40530848503112793
0.2840922964229031,0.40802669525146484
0.2772555243560004,0.4107697010040283
0.27530216090831394,0.41347503662109375
0.2901965571969234,0.4161825180053711
0.28751068245635447,0.41889047622680664
0.27749969478696124,0.42162442207336426
0.28262727383713826,0.4243447780609131
0.28018556952753015,0.4270613193511963
0.2762788426321572,0.4298069477081299
0.28946404590404096,0.43250584602355957
0.28702234159443285,0.43522191047668457
0.28042973995849096,0.43794703483581543
0.2811622512513734,0.440720796585083
0.2814064216823342,0.44342613220214844
0.276523013063118,0.44613051414489746
0.2882431937492369,0.44884562492370605
0.2860456598705896,0.45159292221069336
0.2811622512513734,0.45430588722229004
0.27749969478696124,0.4570140838623047
0.2794530582346477,0.45975685119628906
0.2738371383225491,0.46247005462646484
0.28238310340617745,0.46517252922058105
0.28506897814674637,0.46788573265075684
0.2814064216823342,0.4706294536590576
0.27359296789158827,0.47334718704223633
0.2811622512513734,0.47606468200683594
0.27579050177023556,0.4787743091583252
0.28042973995849096,0.48151493072509766
0.2879990233182761,0.4842221736907959
0.28433646685386393,0.4872446060180664
0.27359296789158827,0.4900245666503906
0.281650592113295,0.49273109436035156
0.276523013063118,0.49544477462768555
0.2833597851300207,0.498152494430542
0.2901965571969234,0.5008907318115234
0.2860456598705896,0.5035998821258545
0.27359296789158827,0.5063042640686035
0.28482480771578556,0.509009838104248
0.27774386521792205,0.5117490291595459
0.2794530582346477,0.5144596099853516
0.2909290684898058,0.5171701908111572
0.28897570504211934,0.519923210144043
0.27505799047735313,0.5226669311523438
0.28677817116347204,0.5254099369049072
0.27823220607984367,0.5281298160552979
0.2787205469417653,0.5308985710144043
0.2923940910755707,0.5336108207702637
0.290684898058845,0.5363223552703857
0.27554633133927475,0.539034366607666
0.28726651202539366,0.5417730808258057
0.2789647173727261,0.5444903373718262
0.27823220607984367,0.5472040176391602
0.2933707727994139,0.5499718189239502
0.2909290684898058,0.5527000427246094
0.27749969478696124,0.555412769317627
0.2858014894396288,0.5581209659576416
0.28018556952753015,0.5608665943145752
0.27798803564888286,0.5635714530944824
0.2931266023684531,0.5662798881530762
0.290684898058845,0.56899094581604
0.2789647173727261,0.5717296600341797
0.28482480771578556,0.5744397640228271
0.2811622512513734,0.5771710872650146
0.27823220607984367,0.5799386501312256
0.2933707727994139,0.5826537609100342
0.2909290684898058,0.5853679180145264
0.2840922964229031,0.5880763530731201
0.28751068245635447,0.5908188819885254
0.28677817116347204,0.5935342311859131
0.2811622512513734,0.5962495803833008
0.2928824319374923,0.5989668369293213
0.29117323892076663,0.6017084121704102
0.285557319008668,0.6044168472290039
0.28287144426809907,0.6071290969848633
0.2853131485777072,0.6098880767822266
0.27969722866560853,0.6126022338867188
0.28897570504211934,0.6153175830841064
0.2921499206446099,0.6180288791656494
0.2860456598705896,0.6207764148712158
0.2792088878036869,0.6234948635101318
0.28677817116347204,0.6262073516845703
0.28042973995849096,0.6289200782775879
0.285557319008668,0.6316745281219482
0.2909290684898058,0.6343774795532227
0.28897570504211934,0.6370985507965088
0.27749969478696124,0.6398415565490723
0.28751068245635447,0.6425526142120361
0.28042973995849096,0.6452615261077881
0.2836039555609815,0.6479732990264893
0.29385911366133555,0.65071702003479
0.2899523867659626,0.6534321308135986
0.27530216090831394,0.6561634540557861
0.28921987547308015,0.6588797569274902
0.2811622512513734,0.6616361141204834
0.2814064216823342,0.6643435955047607
0.29581247710902203,0.6670546531677246
0.2928824319374923,0.6698088645935059
0.27749969478696124,0.6725189685821533
0.2899523867659626,0.6752376556396484
0.2814064216823342,0.6779401302337646
0.2794530582346477,0.6806931495666504
0.2950799658161396,0.6834030151367188
0.2921499206446099,0.686112642288208
0.2789647173727261,0.6888210773468018
0.2879990233182761,0.6915788650512695
0.2811622512513734,0.6943113803863525
0.28042973995849096,0.6970374584197998
0.2948357953851788,0.6997888088226318
0.2921499206446099,0.7024993896484375
0.28018556952753015,0.705207347869873
0.28506897814674637,0.7079188823699951
0.2811622512513734,0.7106685638427734
0.2784763765108045,0.713381290435791
0.2921499206446099,0.7160975933074951
0.2899523867659626,0.718815803527832
0.2809180808204126,0.7215569019317627
0.2836039555609815,0.7242732048034668
0.28287144426809907,0.7269902229309082
0.2792088878036869,0.7297601699829102
0.29190575021364906,0.732475996017456
0.2899523867659626,0.7351973056793213
0.2833597851300207,0.7379140853881836
0.2811622512513734,0.7407338619232178
0.28287144426809907,0.7434420585632324
0.27774386521792205,0.7461507320404053
0.28946404590404096,0.7488582134246826
0.2899523867659626,0.7516043186187744
0.2862898303015504,0.754317045211792
0.2809180808204126,0.7570245265960693
0.28726651202539366,0.7597649097442627
0.2811622512513734,0.7624807357788086
0.28751068245635447,0.7651886940002441
0.29190575021364906,0.7679047584533691
0.28897570504211934,0.7706525325775146
0.2794530582346477,0.7733609676361084
0.28702234159443285,0.7760779857635498
0.28042973995849096,0.778785228729248
0.28506897814674637,0.7815299034118652
0.294591624954218,0.7842411994934082
0.2899523867659626,0.7869493961334229
0.27530216090831394,0.7896966934204102
0.2860456598705896,0.7924041748046875
0.2789647173727261,0.7951154708862305
0.27823220607984367,0.797821044921875
0.29141740935172744,0.8005657196044922
0.28946404590404096,0.8032732009887695
0.2743254791844707,0.8059806823730469
0.2860456598705896,0.8086917400360107
0.27749969478696124,0.8114328384399414
0.2748138200463923,0.8141417503356934
0.2899523867659626,0.8168432712554932
0.28677817116347204,0.819586992263794
0.2723721157367842,0.8223013877868652
0.2836039555609815,0.8250184059143066
0.2770113539250396,0.8277270793914795
0.27579050177023556,0.8304717540740967
0.2909290684898058,0.8331799507141113
0.2887315346111585,0.8358917236328125
0.2772555243560004,0.8385999202728271
0.28213893297521664,0.8413786888122559
0.27749969478696124,0.8440961837768555
0.27334879746062746,0.8468084335327148
0.28751068245635447,0.8495759963989258
0.28433646685386393,0.8522799015045166
0.2762788426321572,0.8549990653991699
0.2794530582346477,0.8577070236206055
0.2789647173727261,0.860450029373169
0.2748138200463923,0.8631560802459717
0.2879990233182761,0.8658676147460938
0.28677817116347204,0.8685793876647949
0.28018556952753015,0.8713192939758301
0.2789647173727261,0.8740301132202148
0.28042973995849096,0.8767387866973877
0.27554633133927475,0.879474401473999
0.28433646685386393,0.8821794986724854
0.28506897814674637,0.8848848342895508
0.28042973995849096,0.887589693069458
0.272616286167745,0.8903975486755371
0.28042973995849096,0.8931121826171875
0.27554633133927475,0.8958163261413574
0.281650592113295,0.898522138595581
0.2860456598705896,0.9012668132781982
0.2809180808204126,0.9039742946624756
0.2694420705652545,0.9066765308380127
0.2784763765108045,0.9094104766845703
0.2718837748748626,0.9121193885803223
0.276523013063118,0.9148249626159668
0.28433646685386393,0.9175281524658203
0.28042973995849096,0.9202632904052734
0.26626785496276395,0.922968864440918
0.2794530582346477,0.9256923198699951
0.2716396044439018,0.9284014701843262
0.2716396044439018,0.9311444759368896
0.28482480771578556,0.9338476657867432
0.28287144426809907,0.936558723449707
0.26846538884141125,0.9392948150634766
0.28042973995849096,0.9420075416564941
0.2716396044439018,0.9447112083435059
0.27115126358198016,0.9474186897277832
0.28653400073251123,0.9501621723175049
0.2831156146990599,0.9528706073760986
0.27066292272005854,0.9555819034576416
0.2794530582346477,0.9582924842834473
0.27359296789158827,0.9610261917114258
0.271395434012941,0.9637339115142822
0.2860456598705896,0.9664552211761475
0.2833597851300207,0.9691648483276367
0.27334879746062746,0.9719221591949463
0.27823220607984367,0.9746317863464355
0.27579050177023556,0.9773361682891846
0.2718837748748626,0.9800698757171631
0.2860456598705896,0.9827792644500732
0.2833597851300207,0.9854803085327148
0.27359296789158827,0.9884819984436035
0.2787205469417653,0.9912314414978027
0.276523013063118,0.993938684463501
0.27359296789158827,0.9966483116149902
0.28677817116347204,0.9993903636932373
0.2853131485777072,1.002098560333252
0.27969722866560853,1.004805088043213
0.2794530582346477,1.0075178146362305
0.28042973995849096,1.010253667831421
0.2760346722011964,1.0129611492156982
0.28677817116347204,1.015669345855713
0.2882431937492369,1.018381118774414
0.2833597851300207,1.0211172103881836
0.27749969478696124,1.0238292217254639
0.2831156146990599,1.0265474319458008
0.27749969478696124,1.029280662536621
0.2862898303015504,1.031989336013794
0.28921987547308015,1.0346980094909668
0.28677817116347204,1.0374088287353516
0.27554633133927475,1.0401537418365479
0.28433646685386393,1.042855978012085
0.27749969478696124,1.045564889907837
0.28018556952753015,1.0482773780822754
0.2899523867659626,1.0510218143463135
0.2860456598705896,1.053724765777588
0.27310462702966665,1.0564303398132324
0.28482480771578556,1.059138298034668
0.2770113539250396,1.061872959136963
0.2792088878036869,1.064584732055664
0.2923940910755707,1.0672974586486816
0.28970821633500177,1.0700411796569824
0.2745696496154315,1.0727481842041016
0.285557319008668,1.0754549503326416
0.27749969478696124,1.0781607627868652
0.276523013063118,1.080906629562378
0.2931266023684531,1.0836200714111328
0.28970821633500177,1.0863234996795654
0.27579050177023556,1.0890302658081055
0.28506897814674637,1.091789722442627
0.27774386521792205,1.0945050716400146
0.276523013063118,1.0972044467926025
0.29190575021364906,1.099938154220581
0.2899523867659626,1.1026458740234375
0.2794530582346477,1.1053543090820312
0.28506897814674637,1.108062744140625
0.28213893297521664,1.1108036041259766
0.27774386521792205,1.1135098934173584
0.29141740935172744,1.1162211894989014
0.28897570504211934,1.1189377307891846
0.28042973995849096,1.1216769218444824
0.28238310340617745,1.1243796348571777
0.28189476254425583,1.1270837783813477
0.27774386521792205,1.1299574375152588
0.28946404590404096,1.1326639652252197
0.2862898303015504,1.1353683471679688
0.28042973995849096,1.138068437576294
0.2784763765108045,1.1408071517944336
0.281650592113295,1.1435058116912842
0.2760346722011964,1.1462008953094482
0.28458063728482474,1.148902416229248
0.28702234159443285,1.1516368389129639
0.28213893297521664,1.1543326377868652
0.27359296789158827,1.1570379734039307
0.281650592113295,1.1597754955291748
0.2760346722011964,1.162482738494873
0.2809180808204126,1.1651957035064697
0.28653400073251123,1.1679039001464844
0.28287144426809907,1.1706442832946777
0.27041875228909773,1.1733498573303223
0.2811622512513734,1.1760571002960205
0.2743254791844707,1.1787676811218262
0.2792088878036869,1.1815056800842285
0.2909290684898058,1.1842164993286133
0.28751068245635447,1.187192678451538
0.27334879746062746,1.1900389194488525
0.28482480771578556,1.192779302597046
0.27749969478696124,1.1954841613769531
0.27823220607984367,1.1981921195983887
0.2879990233182761,1.2009341716766357
0.2860456598705896,1.2036426067352295
0.2716396044439018,1.2063448429107666
0.28458063728482474,1.2090466022491455
0.2762788426321572,1.211803913116455
0.2762788426321572,1.2145097255706787
0.2928824319374923,1.217226505279541
0.28897570504211934,1.2199711799621582
0.27505799047735313,1.2226803302764893
0.28677817116347204,1.2253820896148682
0.2784763765108045,1.2281007766723633
0.27749969478696124,1.2308509349822998
0.2931266023684531,1.2335596084594727
0.2884873641801977,1.2362630367279053
0.27579050177023556,1.238969326019287
0.28433646685386393,1.2417070865631104
0.27823220607984367,1.244415044784546
0.2770113539250396,1.2471203804016113
0.2921499206446099,1.2499265670776367
0.2899523867659626,1.2526350021362305
0.2792088878036869,1.255340814590454
0.2831156146990599,1.2580549716949463
0.28018556952753015,1.260805606842041
0.2784763765108045,1.2635314464569092
0.29385911366133555,1.2662379741668701
0.2882431937492369,1.2689487934112549
0.2811622512513734,1.2716991901397705
0.28213893297521664,1.2744016647338867
0.28482480771578556,1.2771079540252686
0.2784763765108045,1.2798469066619873
0.2899523867659626,1.282559871673584
0.2901965571969234,1.2852694988250732
0.285557319008668,1.2879743576049805
0.28042973995849096,1.2907154560089111
0.2831156146990599,1.2934200763702393
0.2784763765108045,1.2961254119873047
0.28506897814674637,1.298828125
0.28897570504211934,1.3015737533569336
0.28506897814674637,1.3042826652526855
0.27530216090831394,1.3069899082183838
0.28433646685386393,1.3097267150878906
0.27823220607984367,1.3124349117279053
0.2814064216823342,1.3151297569274902
0.2899523867659626,1.3178398609161377
0.28702234159443285,1.3205718994140625
0.27334879746062746,1.3232841491699219
0.2836039555609815,1.3259809017181396
0.276523013063118,1.3287019729614258
0.2770113539250396,1.3314862251281738
0.28897570504211934,1.3341999053955078
0.28677817116347204,1.336907148361206
0.2718837748748626,1.339644193649292
0.28433646685386393,1.3423516750335693
0.27530216090831394,1.3450603485107422
0.2745696496154315,1.3477704524993896
0.28921987547308015,1.3505172729492188
0.2853131485777072,1.3532280921936035
0.2716396044439018,1.355940580368042
0.2809180808204126,1.3586475849151611
0.272616286167745,1.361384630203247
0.27041875228909773,1.3640921115875244
0.28433646685386393,1.3667974472045898
0.2811622512513734,1.3695402145385742
0.27066292272005854,1.372251033782959
0.27774386521792205,1.374959945678711
0.27334879746062746,1.3776752948760986
0.27041875228909773,1.3804194927215576
0.2853131485777072,1.383124589920044
0.28287144426809907,1.3858311176300049
0.27505799047735313,1.3885369300842285
0.2770113539250396,1.39127779006958
0.27554633133927475,1.3939855098724365
0.271395434012941,1.3966991901397705
0.28213893297521664,1.3994371891021729
0.28213893297521664,1.4021449089050293
0.276523013063118,1.4048488140106201
0.2743254791844707,1.4075570106506348
0.2784763765108045,1.4103779792785645
0.271395434012941,1.413095474243164
0.28042973995849096,1.4158031940460205
0.281650592113295,1.4185032844543457
0.276523013063118,1.4212429523468018
0.2696862409962153,1.4239485263824463
0.27530216090831394,1.4266586303710938
0.2694420705652545,1.4294044971466064
0.2762788426321572,1.4321260452270508
0.28213893297521664,1.4348468780517578
0.2794530582346477,1.4375560283660889
0.26846538884141125,1.440293788909912
0.2789647173727261,1.4429969787597656
0.2723721157367842,1.4457032680511475
0.2748138200463923,1.4484052658081055
0.2862898303015504,1.4511682987213135
0.28433646685386393,1.453866958618164
0.27066292272005854,1.4565720558166504
0.2831156146990599,1.4593055248260498
0.2743254791844707,1.4620094299316406
0.27554633133927475,1.464714765548706
0.2899523867659626,1.4674274921417236
0.28751068245635447,1.4701666831970215
0.27310462702966665,1.4728751182556152
0.2858014894396288,1.4755849838256836
0.276523013063118,1.4782893657684326
0.2762788426321572,1.4810290336608887
0.2921499206446099,1.483734369277954
0.28897570504211934,1.486738681793213
0.27530216090831394,1.4894890785217285
0.2860456598705896,1.4922003746032715
0.2772555243560004,1.4949164390563965
0.27579050177023556,1.4976248741149902
0.290684898058845,1.5003595352172852
0.2882431937492369,1.5030701160430908
0.2760346722011964,1.5059123039245605
0.2862898303015504,1.5090293884277344
0.27774386521792205,1.5119683742523193
0.27774386521792205,1.5147695541381836
0.2921499206446099,1.5179369449615479
0.28897570504211934,1.521085262298584
0.28018556952753015,1.5239808559417725
0.2860456598705896,1.5267391204833984
0.28042973995849096,1.5298326015472412
0.2887315346111585,1.5329186916351318
0.28921987547308015,1.5358469486236572
0.2809180808204126,1.5389435291290283
0.28726651202539366,1.5421106815338135
0.27969722866560853,1.5452604293823242
0.28042973995849096,1.5484035015106201
0.29385911366133555,1.551527738571167
0.2882431937492369,1.554656744003296
0.2809180808204126,1.557680368423462
0.2831156146990599,1.5608875751495361
0.27774386521792205,1.5637495517730713
0.2921499206446099,1.5669538974761963
0.29117323892076663,1.570176124572754
0.27579050177023556,1.5730273723602295
0.28751068245635447,1.5760605335235596
0.2784763765108045,1.578948736190796
0.2806739103894518,1.5819900035858154
0.2899523867659626,1.5850801467895508
0.2853131485777072,1.587878704071045
0.2767671834940788,1.5907154083251953
0.2811622512513734,1.5939879417419434
0.2784763765108045,1.5971009731292725
0.2928824319374923,1.599968671798706
0.2901965571969234,1.6027448177337646
0.28042973995849096,1.6057438850402832
0.28751068245635447,1.6088881492614746
0.28042973995849096,1.611882209777832
0.2794530582346477,1.6149883270263672
0.2926382615065315,1.6181151866912842
0.28726651202539366,1.6213405132293701
0.28042973995849096,1.6245067119598389
0.28287144426809907,1.6275978088378906
0.27823220607984367,1.6307716369628906
0.2928824319374923,1.6338565349578857
0.2901965571969234,1.6369521617889404
0.2748138200463923,1.6399331092834473
0.28433646685386393,1.6430771350860596
0.2784763765108045,1.6462037563323975
0.2860456598705896,1.649038314819336
0.2899523867659626,1.6521787643432617
0.28433646685386393,1.655057430267334
0.2831156146990599,1.6580865383148193
0.28213893297521664,1.6611766815185547
0.2789647173727261,1.6639938354492188
0.29385911366133555,1.667024850845337
0.2931266023684531,1.670166254043579
0.27749969478696124,1.6731901168823242
0.28946404590404096,1.6759521961212158
0.2811622512513734,1.6787316799163818
0.2836039555609815,1.6818838119506836
0.29385911366133555,1.6850028038024902
0.28921987547308015,1.6880052089691162
0.28238310340617745,1.6912107467651367
0.28506897814674637,1.6943025588989258
0.2811622512513734,1.6974213123321533
0.29605664753998284,1.7005658149719238
0.29385911366133555,1.7037105560302734
0.2772555243560004,1.7067804336547852
0.2882431937492369,1.7099950313568115
0.28189476254425583,1.7130146026611328
0.290684898058845,1.7160773277282715
0.2933707727994139,1.7191555500030518
0.2836039555609815,1.7222228050231934
0.28726651202539366,1.7252600193023682
0.2831156146990599,1.7281196117401123
0.281650592113295,1.7310764789581299
0.2967891588328653,1.7343025207519531
0.294591624954218,1.7371175289154053
0.2789647173727261,1.739959716796875
0.28897570504211934,1.7431905269622803
0.2811622512513734,1.7463245391845703
0.2884873641801977,1.7491142749786377
0.2921499206446099,1.7519822120666504
0.28726651202539366,1.75496506690979
0.2831156146990599,1.758025884628296
0.28506897814674637,1.761134147644043
0.2811622512513734,1.7642130851745605
0.2948357953851788,1.767338514328003
0.29141740935172744,1.77054762840271
0.27505799047735313,1.7736754417419434
0.2860456598705896,1.7769007682800293
0.2794530582346477,1.7800819873809814
0.29166157978268825,1.783170461654663
0.2921499206446099,1.786259412765503
0.28213893297521664,1.7892324924468994
0.290684898058845,1.7924354076385498
0.281650592113295,1.7955293655395508
0.2811622512513734,1.798358678817749
0.29141740935172744,1.8014872074127197
0.28897570504211934,1.8043100833892822
0.276523013063118,1.8070600032806396
0.2860456598705896,1.8098716735839844
0.2784763765108045,1.812584400177002
0.2814064216823342,1.8152928352355957
0.290684898058845,1.8179998397827148
0.28726651202539366,1.8207473754882812
0.27310462702966665,1.8234648704528809
0.28433646685386393,1.8261685371398926
0.27554633133927475,1.8288776874542236
0.2767671834940788,1.8316211700439453
0.29117323892076663,1.8343384265899658
0.2882431937492369,1.8370494842529297
0.27334879746062746,1.8398046493530273
0.28702234159443285,1.8425135612487793
0.27798803564888286,1.8452205657958984
0.2772555243560004,1.8479344844818115
0.2921499206446099,1.8507592678070068
0.2884873641801977,1.8534681797027588
0.2743254791844707,1.8561818599700928
0.28506897814674637,1.8588943481445312
0.27749969478696124,1.8616509437561035
0.27823220607984367,1.8643603324890137
0.2909290684898058,1.867072343826294
0.2887315346111585,1.8698294162750244
0.276523013063118,1.8725366592407227
0.2831156146990599,1.875246286392212
0.2784763765108045,1.8779575824737549
0.27579050177023556,1.8807082176208496
0.28946404590404096,1.8834259510040283
0.2860456598705896,1.8861401081085205
0.276523013063118,1.8888475894927979
0.28042973995849096,1.8915965557098389
0.27969722866560853,1.8943085670471191
0.27530216090831394,1.8970158100128174
0.28946404590404096,1.899768590927124
0.2879990233182761,1.90248703956604
0.28213893297521664,1.9052009582519531
0.2809180808204126,1.9079158306121826
0.2833597851300207,1.9107027053833008
0.27774386521792205,1.913419246673584
0.28897570504211934,1.916135549545288
0.28897570504211934,1.9188451766967773
0.28482480771578556,1.921588659286499
0.2789647173727261,1.924299955368042
0.285557319008668,1.9270036220550537
0.27969722866560853,1.9297733306884766
0.28751068245635447,1.9324896335601807
0.2909290684898058,1.9352140426635742
0.2882431937492369,1.9379265308380127
0.27823220607984367,1.9406723976135254
0.28506897814674637,1.9433841705322266
0.2789647173727261,1.94590163230896
0.27823220607984367,1.9472565650939941
0.28726651202539366,1.9486093521118164
0.2928824319374923,1.9499845504760742
0.28970821633500177,1.9513370990753174
0.2931266023684531,1.9526917934417725
0.28751068245635447,1.9540493488311768
0.28018556952753015,1.9554061889648438
0.2794530582346477,1.9567594528198242
0.28897570504211934,1.958115577697754
0.28677817116347204,1.9594879150390625
0.2833597851300207,1.9608452320098877
0.2809180808204126,1.9622032642364502
0.28213893297521664,1.9635560512542725
0.2882431937492369,1.9649109840393066
0.29605664753998284,1.9662659168243408
0.2933707727994139,1.967620849609375
0.2953241362471004,1.9689784049987793
0.29385911366133555,1.970348596572876
0.2860456598705896,1.9717004299163818
0.2809180808204126,1.973055362701416
0.28946404590404096,1.9744060039520264
0.2899523867659626,1.9757616519927979
0.28726651202539366,1.9771175384521484
0.2833597851300207,1.978471279144287
0.2833597851300207,1.9798405170440674
0.28433646685386393,1.9811947345733643
0.294591624954218,1.9825525283813477
0.29434745452325717,1.9839107990264893
0.2926382615065315,1.985267162322998
0.2933707727994139,1.986823558807373
0.2858014894396288,1.9881877899169922
0.2792088878036869,1.9895622730255127
0.28726651202539366,1.990919589996338
0.290684898058845,1.9922752380371094
0.2879990233182761,1.993631362915039
0.2840922964229031,1.9949853420257568
0.285557319008668,1.996338129043579
0.290684898058845,1.9976904392242432
0.2994750335734342,1.9990439414978027
0.2999633744353558,2.0004186630249023
0.2977658405567085,2.0017778873443604
0.299719204004395,2.003131866455078
0.2931266023684531,2.0044894218444824
0.2860456598705896,2.005845069885254
0.2909290684898058,2.007201910018921
0.2977658405567085,2.0085575580596924
0.29410328409229636,2.009930372238159
0.2899523867659626,2.0112876892089844
0.28970821633500177,2.012645959854126
0.28921987547308015,2.0139987468719482
0.2977658405567085,2.0153560638427734
0.30289341960688554,2.016709804534912
0.29898669271151257,2.0180652141571045
0.3019167378830423,2.0194365978240967
0.29581247710902203,2.0207948684692383
0.2882431937492369,2.0221481323242188
0.2882431937492369,2.0235037803649902
0.29605664753998284,2.024857521057129
0.2933707727994139,2.0262131690979004
0.28921987547308015,2.0275654792785645
0.28677817116347204,2.0289182662963867
0.2860456598705896,2.0302908420562744
0.2909290684898058,2.0316481590270996
0.29874252228055176,2.0330076217651367
0.29581247710902203,2.0343682765960693
0.2972774996947869,2.035719156265259
0.29410328409229636,2.037076234817505
0.2860456598705896,2.038433313369751
0.281650592113295,2.0398190021514893
0.2899523867659626,2.0411787033081055
0.28946404590404096,2.0425338745117188
0.28653400073251123,2.043891191482544
0.2860456598705896,2.04524827003479
0.2882431937492369,2.0466020107269287
0.29654498840190446,2.04903507232666
0.30069588572823824,2.051804542541504
0.2980100109876693,2.054518222808838
0.2860456598705896,2.057232618331909
0.2970333292638261,2.059978723526001
0.28946404590404096,2.0626838207244873
0.29117323892076663,2.0653939247131348
0.30264924917592473,2.0681092739105225
0.29385911366133555,2.070855140686035
0.28042973995849096,2.0735721588134766
0.29898669271151257,2.0762853622436523
0.2909290684898058,2.078998327255249
0.2909290684898058,2.0817456245422363
0.30289341960688554,2.084459066390991
0.30069588572823824,2.08717679977417
0.2860456598705896,2.0899205207824707
0.2975216701257477,2.092637062072754
0.28897570504211934,2.0953502655029297
0.28751068245635447,2.0980629920959473
0.3019167378830423,2.10080885887146
0.29849835184959095,2.1035163402557373
0.285557319008668,2.1062238216400146
0.29361494323037474,2.1089329719543457
0.2860456598705896,2.1116750240325928
0.28458063728482474,2.1143832206726074
0.2999633744353558,2.117091655731201
0.2972774996947869,2.1198413372039795
0.2860456598705896,2.1225531101226807
0.2901965571969234,2.1252636909484863
0.2882431937492369,2.127974271774292
0.2831156146990599,2.1307175159454346
0.2972774996947869,2.1334333419799805
0.2950799658161396,2.1361536979675293
0.28726651202539366,2.1388628482818604
0.28751068245635447,2.1416213512420654
0.28433646685386393,2.1443333625793457
0.28018556952753015,2.1470448970794678
0.2860456598705896,2.1497855186462402
0.285557319008668,2.1524970531463623
0.2794530582346477,2.155245542526245
0.2772555243560004,2.1579742431640625
0.28042973995849096,2.1607182025909424
0.27554633133927475,2.163431406021118
0.2853131485777072,2.166132688522339
0.28677817116347204,2.1688380241394043
0.2831156146990599,2.171597480773926
0.27530216090831394,2.1743130683898926
0.28287144426809907,2.1770219802856445
0.27530216090831394,2.179774522781372
0.28482480771578556,2.182483196258545
0.28897570504211934,2.185192823410034
0.28433646685386393,2.1878998279571533
0.27554633133927475,2.190638542175293
0.2860456598705896,2.1933486461639404
0.2784763765108045,2.1960580348968506
0.27969722866560853,2.198762893676758
0.28897570504211934,2.201512336730957
0.2882431937492369,2.2042224407196045
0.2740813087535099,2.2069315910339355
0.28726651202539366,2.209667921066284
0.27823220607984367,2.21237850189209
0.2789647173727261,2.2150886058807373
0.2909290684898058,2.2177999019622803
0.2860456598705896,2.2205474376678467
0.27066292272005854,2.223254442214966
0.2862898303015504,2.225956439971924
0.27798803564888286,2.2286670207977295
0.2794530582346477,2.231400728225708
0.3024050787449639,2.2341256141662598
0.2967891588328653,2.236846685409546
0.28433646685386393,2.2395970821380615
0.30069588572823824,2.24230694770813
0.2970333292638261,2.2450149059295654
0.2931266023684531,2.24771785736084
0.30582346477841527,2.250462293624878
0.3038701013307288,2.253169298171997
0.294591624954218,2.25587797164917
0.2967891588328653,2.258594036102295
0.28921987547308015,2.2613368034362793
0.28238310340617745,2.2640397548675537
0.29190575021364906,2.2667484283447266
0.28726651202539366,2.269556999206543
0.28042973995849096,2.2722723484039307
0.2811622512513734,2.2749857902526855
0.28262727383713826,2.2776975631713867
0.27749969478696124,2.28043532371521
0.2879990233182761,2.2831499576568604
0.28702234159443285,2.2858691215515137
0.28287144426809907,2.288577079772949
0.27994139909656934,2.2913458347320557
0.2794530582346477,2.294055223464966
0.2811622512513734,2.296760082244873
0.28506897814674637,2.299499750137329
0.28726651202539366,2.302198886871338
0.27749969478696124,2.304903268814087
0.2784763765108045,2.3076090812683105
0.28677817116347204,2.310343027114868
0.28042973995849096,2.3130598068237305
0.2831156146990599,2.315779209136963
0.2977658405567085,2.318483829498291
0.2931266023684531,2.3212227821350098
0.290684898058845,2.323934316635132
0.3019167378830423,2.326643705368042
0.2950799658161396,2.3293912410736084
0.3002075448663166,2.33211088180542
0.3160786228787693,2.3348336219787598
0.30582346477841527,2.337559461593628
0.29190575021364906,2.3403170108795166
0.3180319863264558,2.3430278301239014
0.3133927481382004,2.3457326889038086
0.3341472347698693,2.348445415496826
0.3475766084727139,2.351187229156494
0.3573434257111463,2.3539023399353027
0.346111585886949,2.356611967086792
0.35856427786595035,2.3593547344207764
0.3475766084727139,2.3620710372924805
0.34196068856061523,2.3647892475128174
0.36051764131363684,2.367504119873047
0.35636674398730306,2.3702447414398193
0.3439140520083017,2.3729474544525146
0.346111585886949,2.3756537437438965
0.3412281772677328,2.3783648014068604
0.33976315468196794,2.3811042308807373
0.3578317665730679,2.383812189102173
0.3544133805396166,2.3865230083465576
0.3439140520083017,2.3892219066619873
0.3458674154559882,2.3919622898101807
0.34196068856061523,2.394671678543091
0.3348797460627517,2.3973817825317383
0.3475766084727139,2.400128126144409
0.346111585886949,2.4028406143188477
0.34464656330118415,2.4055516719818115
0.34000732511292875,2.4082581996917725
0.33585642778659497,2.411025285720825
0.3207178610670247,2.41373348236084
0.3256012696862409,2.416440486907959
0.32633378097912336,2.4191460609436035
0.3317055304602612,2.4218950271606445
0.33048467830545714,2.424612522125244
0.3341472347698693,2.427320718765259
0.3270662922720058,2.430067539215088
0.3341472347698693,2.4327776432037354
0.33561225735563416,2.4354937076568604
0.3246245879623977,2.438211679458618
0.31436942986204364,2.440960645675659
0.3153461115858869,2.443667411804199
0.3046026126236112,2.4463813304901123
0.2967891588328653,2.4490926265716553
0.30069588572823824,2.45184063911438
0.3038701013307288,2.4545602798461914
0.29117323892076663,2.4572715759277344
0.30094005615919905,2.4600181579589844
0.294591624954218,2.4627349376678467
0.3063118056403369,2.4654417037963867
0.32120620192894633,2.468151569366455
0.3163227933097301,2.4709019660949707
0.29874252228055176,2.4736151695251465
0.308753509949945,2.4763238430023193
0.3016725674520815,2.47904109954834
0.3014283970211207,2.481781005859375
0.31241606641435715,2.4844961166381836
0.3038701013307288,2.4875130653381348
0.28946404590404096,2.4902634620666504
0.31485777072396526,2.4929769039154053
0.30728848736418013,2.4956858158111572
0.30777682822610175,2.4983978271484375
0.3302405078744963,2.501173496246338
0.33268221218410443,2.5038905143737793
0.32145037235990714,2.5065925121307373
0.32633378097912336,2.5093281269073486
0.31729947503357336,2.5120396614074707
0.30973019167378824,2.514744281768799
0.3251129288243193,2.5174527168273926
0.322915394945672,2.520199775695801
0.31241606641435715,2.522925615310669
0.3158344524478085,2.5256333351135254
0.3107068733976315,2.528341054916382
0.3065559760712977,2.53110671043396
0.3273104627029666,2.5338199138641357
0.3221828836527896,2.5365428924560547
0.3185203271883774,2.539294481277466
0.33048467830545714,2.5420048236846924
0.32901965571969227,2.5447139739990234
0.3317055304602612,2.5474205017089844
0.35587840312538144,2.550168752670288
0.35148333536808685,2.5528829097747803
0.3485532901965571,2.555593252182007
0.3553900622634598,2.5583012104034424
0.3556342326944206,2.561039686203003
0.3439140520083017,2.5637476444244385
0.3497741423513612,2.5664589405059814
0.34684409717983145,2.5691699981689453
0.3390306433890855,2.571913003921509
0.3299963374435355,2.5746171474456787
0.3246245879623977,2.577324628829956
0.3141252594310828,2.5800583362579346
0.3160786228787693,2.582765817642212
0.3221828836527896,2.5854735374450684
0.3155902820168477,2.5881729125976562
0.31656696374069093,2.5909056663513184
0.3321938713221828,2.5936098098754883
0.32120620192894633,2.596318483352661
0.308753509949945,2.599029064178467
0.3094860212428274,2.601766347885132
0.3092418508118666,2.604475736618042
0.29434745452325717,2.6071906089782715
0.3063118056403369,2.6099367141723633
0.29849835184959095,2.612644910812378
0.3065559760712977,2.615360736846924
0.3221828836527896,2.618067741394043
0.31729947503357336,2.6208112239837646
0.30313759003784635,2.62351655960083
0.32828714442680984,2.6262242794036865
0.32438041753143687,2.6289472579956055
0.35587840312538144,2.63169527053833
0.38176046880722736,2.634403944015503
0.3898180930289341,2.6371238231658936
0.38591136613356114,2.6398701667785645
0.40446831888658275,2.6425790786743164
0.3966548650958368,2.645284652709961
0.3993407398364057,2.6479947566986084
0.39567818337199356,2.650754928588867
0.39348064949334627,2.653472423553467
0.3807837870833841,2.656181812286377
0.37883042363569763,2.658888101577759
0.37199365156879494,2.6616294384002686
0.3578317665730679,2.6643383502960205
0.3671102429495787,2.667051076889038
0.3624710047613233,2.6697916984558105
0.35148333536808685,2.6725058555603027
0.346111585886949,2.675215005874634
0.33976315468196794,2.6779229640960693
0.3302405078744963,2.680656909942627
0.3348797460627517,2.6833651065826416
0.3297521670125747,2.6860761642456055
0.3221828836527896,2.688783884048462
0.32169454279086795,2.6915221214294434
0.32657795141008417,2.6942319869995117
0.3185203271883774,2.696937084197998
0.32657795141008417,2.699676990509033
0.32804297399584903,2.7023887634277344
0.3221828836527896,2.7050957679748535
0.31241606641435715,2.7078075408935547
0.31974117934318147,2.7105419635772705
0.3114393846905139,2.713247060775757
0.3136369185691612,2.7159523963928223
0.3224270540837504,2.718656063079834
0.3180319863264558,2.7213938236236572
0.3041142717616896,2.724106550216675
0.31241606641435715,2.7268121242523193
0.3094860212428274,2.7295546531677246
0.30362593089976797,2.732276439666748
0.3063118056403369,2.7349929809570312
0.3060676352093761,2.7377114295959473
0.2950799658161396,2.740464210510254
0.3070443169332193,2.7431812286376953
0.2970333292638261,2.7458863258361816
0.29410328409229636,2.748596429824829
0.3109510438285923,2.751338243484497
0.30509095348553283,2.754047155380249
0.29190575021364906,2.756760358810425
0.29874252228055176,2.7594947814941406
0.2933707727994139,2.762202262878418
0.2899523867659626,2.764907121658325
0.30557929434745446,2.767622232437134
0.30118422659015986,2.7703797817230225
0.2933707727994139,2.7730889320373535
0.308753509949945,2.7757973670959473
0.30289341960688554,2.7785027027130127
0.3016725674520815,2.781311511993408
0.31925283848125985,2.7840182781219482
0.31729947503357336,2.786726713180542
0.31241606641435715,2.789468765258789
0.3163227933097301,2.7921669483184814
0.3116835551214747,2.7948713302612305
0.30777682822610175,2.7975831031799316
0.3109510438285923,2.800321102142334
0.30728848736418013,2.8030292987823486
0.2980100109876693,2.805736541748047
0.3016725674520815,2.80845046043396
0.30557929434745446,2.8111886978149414
0.30045171529727743,2.8139026165008545
0.3109510438285923,2.8166208267211914
0.3116835551214747,2.8193655014038086
0.3094860212428274,2.822079658508301
0.30753265779514094,2.8247857093811035
0.3094860212428274,2.8275036811828613
0.30509095348553283,2.8302431106567383
0.32608961054816255,2.832960605621338
0.33317055304602605,2.8356733322143555
0.3341472347698693,2.838387966156006
0.33292638261506524,2.841132640838623
0.34879746062751793,2.8438408374786377
0.340984006836772,2.8465774059295654
0.340984006836772,2.8493270874023438
0.3456232450250274,2.852041482925415
0.34196068856061523,2.854745388031006
0.32804297399584903,2.8574562072753906
0.33780979123428145,2.860199451446533
0.3299963374435355,2.8629093170166016
0.331949700891222,2.865619659423828
0.3414723476986936,2.868330240249634
0.3368331095104382,2.8710782527923584
0.3199853497741423,2.8737895488739014
0.3299963374435355,2.8765037059783936
0.3187644976193382,2.87920880317688
0.3163227933097301,2.8819494247436523
0.3297521670125747,2.884657621383667
0.32438041753143687,2.887360095977783
0.30973019167378824,2.8901820182800293
0.31656696374069093,2.892887592315674
0.3068001465022585,2.895592212677002
0.308753509949945,2.8982973098754883
0.3270662922720058,2.901034355163574
0.3226712245147112,2.9037389755249023
0.3131485777072396,2.9064407348632812
0.3185203271883774,2.9091477394104004
0.3116835551214747,2.911891222000122
0.3068001465022585,2.9146008491516113
0.3299963374435355,2.9173085689544678
0.326822121841045,2.9200456142425537
0.313881089000122,2.922752857208252
0.3221828836527896,2.925457715988159
0.32438041753143687,2.92816162109375
0.31436942986204364,2.9309022426605225
0.3221828836527896,2.933605670928955
0.31925283848125985,2.9363160133361816
0.3109510438285923,2.939018487930298
0.3114393846905139,2.941756010055542
0.3185203271883774,2.9444615840911865
0.3114393846905139,2.9471628665924072
0.32633378097912336,2.9498953819274902
0.32804297399584903,2.9526045322418213
0.3207178610670247,2.9553074836730957
0.3116835551214747,2.9580132961273193
0.3153461115858869,2.960752487182617
0.3085093395189842,2.963465452194214
0.3092418508118666,2.9661734104156494
0.3116835551214747,2.9688825607299805
0.30509095348553283,2.971620559692383
0.2928824319374923,2.9743268489837646
0.304846783054572,2.977031707763672
0.2977658405567085,2.9797675609588623
0.30264924917592473,2.982485294342041
0.3185203271883774,2.985194206237793
0.3094860212428274,2.988203525543213
0.2970333292638261,2.990947961807251
0.3107068733976315,2.9936578273773193
0.304846783054572,2.996367931365967
0.3155902820168477,2.9990768432617188
0.331949700891222,3.0018134117126465
0.3246245879623977,3.0045230388641357
0.3107068733976315,3.00723934173584
0.3253570992552801,3.0100038051605225
0.3163227933097301,3.0127193927764893
0.3109510438285923,3.0154244899749756
0.3277988035648882,3.0181281566619873
0.32340373580759363,3.020869016647339
0.30777682822610175,3.0235774517059326
0.3129044072762788,3.0262773036956787
0.3019167378830423,3.028981924057007
0.2953241362471004,3.0317227840423584
0.3094860212428274,3.0344271659851074
0.30509095348553283,3.037130832672119
0.294591624954218,3.0398807525634766
0.304846783054572,3.0425870418548584
0.2977658405567085,3.045295476913452
0.2994750335734342,3.048002004623413
0.31485777072396526,3.0507402420043945
0.3133927481382004,3.053440809249878
0.3043584421926504,3.0561482906341553
0.3092418508118666,3.0588488578796387
0.3085093395189842,3.061589002609253
0.3046026126236112,3.0642991065979004
0.31729947503357336,3.0670032501220703
0.3155902820168477,3.069735050201416
0.30777682822610175,3.0724408626556396
0.3016725674520815,3.0751471519470215
0.29605664753998284,3.077862024307251
0.2923940910755707,3.080601692199707
0.2967891588328653,3.083310842514038
0.294591624954218,3.086012840270996
0.2977658405567085,3.088721752166748
0.29898669271151257,3.091459035873413
0.3068001465022585,3.094170331954956
0.30264924917592473,3.0968801975250244
0.3089976803809058,3.099622964859009
0.31436942986204364,3.1023292541503906
0.31046270296667067,3.1050407886505127
0.2980100109876693,3.107745885848999
0.30557929434745446,3.110485553741455
0.29849835184959095,3.1131932735443115
0.30264924917592473,3.1159043312072754
0.31241606641435715,3.118614912033081
0.30533512391649364,3.121354818344116
0.290684898058845,3.1240622997283936
0.29874252228055176,3.1267662048339844
0.2904407276278842,3.129523992538452
0.2840922964229031,3.132233142852783
0.2977658405567085,3.134939193725586
0.2950799658161396,3.137645721435547
0.28042973995849096,3.1403915882110596
0.2909290684898058,3.1431021690368652
0.2814064216823342,3.145805835723877
0.27749969478696124,3.1485114097595215
0.29190575021364906,3.1512539386749268
0.2860456598705896,3.153960943222046
0.27530216090831394,3.156665802001953
0.2789647173727261,3.1594083309173584
0.27530216090831394,3.1621172428131104
0.2645586619460383,3.164825201034546
0.276523013063118,3.1675291061401367
0.2743254791844707,3.170269727706909
0.26382615065315584,3.172973871231079
0.26431449151507747,3.1756770610809326
0.258454401172018,3.178380012512207
0.24819924307166397,3.181119203567505
0.2586985716029788,3.183823585510254
0.25747771944817477,3.186535120010376
0.2508851178122329,3.189234495162964
0.2518617995360761,3.191993474960327
0.25283848125991937,3.1946980953216553
0.24795507264070316,3.197416067123413
0.2652911732389207,3.200157403945923
0.2655353436698815,3.202866315841675
0.26407032108411665,3.2055790424346924
0.2586985716029788,3.208287477493286
0.2608961054816261,3.211170196533203
0.2579660603100964,3.2138757705688477
0.271395434012941,3.2165865898132324
0.27579050177023556,3.219318389892578
0.27115126358198016,3.222031354904175
0.26211695763643017,3.2247397899627686
0.26846538884141125,3.227447271347046
0.2628494689293126,3.230175018310547
0.26675619582468557,3.232887029647827
0.2743254791844707,3.23559832572937
0.2655353436698815,3.2383036613464355
0.25479184470760585,3.2410614490509033
0.2743254791844707,3.2437729835510254
0.2655353436698815,3.2464888095855713
0.2679770479794896,3.249192953109741
0.2794530582346477,3.2519564628601074
0.2787205469417653,3.254669189453125
0.26602368453180314,3.257377862930298
0.27749969478696124,3.2601158618927
0.2691979001342937,3.2628257274627686
0.27334879746062746,3.2655398845672607
0.28946404590404096,3.2682511806488037
0.29141740935172744,3.270994186401367
0.2811622512513734,3.2737176418304443
0.2931266023684531,3.2764296531677246
0.28506897814674637,3.2791385650634766
0.28433646685386393,3.2818799018859863
0.2999633744353558,3.284590244293213
0.29654498840190446,3.287306308746338
0.28433646685386393,3.290114164352417
0.28946404590404096,3.2928152084350586
0.2814064216823342,3.295515775680542
0.2770113539250396,3.298226833343506
0.2909290684898058,3.300969362258911
0.28921987547308015,3.3036770820617676
0.2789647173727261,3.3063974380493164
0.2833597851300207,3.3091020584106445
0.2794530582346477,3.3118371963500977
0.27994139909656934,3.314547538757324
0.2972774996947869,3.3172554969787598
0.29849835184959095,3.320002794265747
0.2970333292638261,3.3227150440216064
0.3038701013307288,3.325423240661621
0.3070443169332193,3.3281357288360596
0.30118422659015986,3.3308732509613037
0.3153461115858869,3.3335812091827393
0.3133927481382004,3.336290121078491
0.3094860212428274,3.3390021324157715
0.3070443169332193,3.341766119003296
0.31241606641435715,3.344489336013794
0.30753265779514094,3.3471972942352295
0.3202295202051031,3.349944829940796
0.32413624710047606,3.3526570796966553
0.31925283848125985,3.3553624153137207
0.30973019167378824,3.3580715656280518
0.31436942986204364,3.3608076572418213
0.3060676352093761,3.363518476486206
0.3016725674520815,3.3662338256835938
0.3094860212428274,3.3689403533935547
0.30069588572823824,3.3717079162597656
0.2879990233182761,3.374418258666992
0.29898669271151257,3.3771250247955322
0.290684898058845,3.379866600036621
0.2879990233182761,3.382598400115967
0.2999633744353558,3.3853180408477783
0.2931266023684531,3.388026714324951
0.27823220607984367,3.3907666206359863
0.2882431937492369,3.393476724624634
0.28018556952753015,3.396186351776123
0.272616286167745,3.3988940715789795
0.28677817116347204,3.4016263484954834
0.28018556952753015,3.4043431282043457
0.2655353436698815,3.407050371170044
0.2770113539250396,3.409790277481079
0.26870955927237206,3.4124979972839355
0.26211695763643017,3.4152028560638428
0.2716396044439018,3.417907953262329
0.2679770479794896,3.4206438064575195
0.25454767427664504,3.423346996307373
0.26162861677450855,3.426060914993286
0.25503601513856666,3.42876935005188
0.24990843608838964,3.4315147399902344
0.26358198022219503,3.434217929840088
0.26187278720546936,3.4369266033172607
0.25894274203393963,3.4396605491638184
0.25674520815529234,3.442378044128418
0.2508851178122329,3.4450838565826416
0.2538151629837626,3.447796583175659
0.2606519350506653,3.450540065765381
0.2586985716029788,3.4532485008239746
0.25479184470760585,3.4559531211853027
0.25479184470760585,3.4586522579193115
0.2579660603100964,3.461383819580078
0.25283848125991937,3.4640913009643555
0.26651202539372476,3.4667954444885254
0.2694420705652545,3.4695351123809814
0.2628494689293126,3.472247362136841
0.2562568672933707,3.4749550819396973
0.2677328775485288,3.477663278579712
0.25943108289586125,3.4803998470306396
0.25967525332682206,3.483102560043335
0.27041875228909773,3.485811948776245
0.2601635941887437,3.4888179302215576
0.25479184470760585,3.491586685180664
0.2696862409962153,3.494297981262207
0.26382615065315584,3.4970080852508545
0.2718837748748626,3.4997520446777344
0.2831156146990599,3.5024659633636475
0.27554633133927475,3.5051708221435547
0.26407032108411665,3.5078747272491455
0.27505799047735313,3.510608434677124
0.26870955927237206,3.513319730758667
0.26846538884141125,3.516035795211792
0.27505799047735313,3.518742084503174
0.272616286167745,3.5214860439300537
0.2582102307410572,3.5241923332214355
0.2762788426321572,3.526911735534668
0.26870955927237206,3.5296521186828613
0.2694420705652545,3.532362222671509
0.28213893297521664,3.53507399559021
0.2772555243560004,3.537816047668457
0.2626052984983518,3.5405664443969727
0.271395434012941,3.5432980060577393
0.26211695763643017,3.5460169315338135
0.2604077646197045,3.5487234592437744
0.27115126358198016,3.5514795780181885
0.27359296789158827,3.554184913635254
0.26211695763643017,3.5568947792053223
0.26675619582468557,3.559635639190674
0.2606519350506653,3.5623435974121094
0.25454767427664504,3.5650479793548584
0.2630936393602734,3.5677523612976074
0.2608961054816261,3.570500612258911
0.2530826516908802,3.5732038021087646
0.25698937858625315,3.575911521911621
0.25259431082895856,3.5786168575286865
0.2518617995360761,3.5813591480255127
0.26870955927237206,3.5840721130371094
0.2672445366866072,3.586778402328491
0.2608961054816261,3.5895283222198486
0.26211695763643017,3.5922398567199707
0.26382615065315584,3.5949463844299316
0.25674520815529234,3.597651243209839
0.2677328775485288,3.6003942489624023
0.27041875228909773,3.6030983924865723
0.26211695763643017,3.6058051586151123
0.26138444634354774,3.6085121631622314
0.272616286167745,3.6112778186798096
0.271395434012941,3.613985300064087
0.28726651202539366,3.6166980266571045
0.2931266023684531,3.619433879852295
0.2948357953851788,3.6221511363983154
0.2909290684898058,3.6248598098754883
0.2970333292638261,3.627562999725342
0.29117323892076663,3.6303000450134277
0.2994750335734342,3.633009672164917
0.31485777072396526,3.635709524154663
0.31266023684531796,3.638406753540039
0.30313759003784635,3.6411473751068115
0.3182761567574166,3.6438746452331543
0.31021853253570986,3.6465890407562256
0.3111952142595531,3.6493403911590576
0.32389207666951525,3.652052879333496
0.31681113417165174,3.6547608375549316
0.30069588572823824,3.6574671268463135
0.3163227933097301,3.6602091789245605
0.30777682822610175,3.6629161834716797
0.304846783054572,3.6656293869018555
0.3202295202051031,3.6683430671691895
0.31436942986204364,3.6710898876190186
0.30045171529727743,3.673797845840454
0.30826516908802337,3.6765031814575195
0.30264924917592473,3.679208993911743
0.29385911366133555,3.68194842338562
0.30973019167378824,3.684662103652954
0.3065559760712977,3.6873714923858643
0.29434745452325717,3.690110921859741
0.2953241362471004,3.692823648452759
0.28726651202539366,3.695533275604248
0.27969722866560853,3.6982526779174805
0.2836039555609815,3.7009997367858887
0.28042973995849096,3.7037158012390137
0.2696862409962153,3.706425905227661
0.27066292272005854,3.7091360092163086
0.26651202539372476,3.711884021759033
0.26651202539372476,3.714585304260254
0.27334879746062746,3.717297077178955
0.2716396044439018,3.720036268234253
0.26577951410084233,3.722743272781372
0.26162861677450855,3.7254507541656494
0.25967525332682206,3.728156805038452
0.2508851178122329,3.7309207916259766
0.25430350384568423,3.733642578125
0.25503601513856666,3.736363649368286
0.2511292882431937,3.739072799682617
0.24502502746917343,3.741831064224243
0.2508851178122329,3.7445526123046875
0.2469783909168599,3.747271776199341
0.2577218898791356,3.7500216960906982
0.2655353436698815,3.7527384757995605
0.26187278720546936,3.7554430961608887
0.2516176291051153,3.7581427097320557
0.2586985716029788,3.7608940601348877
0.25039677695031126,3.763597011566162
0.25283848125991937,3.7663049697875977
0.26358198022219503,3.7690136432647705
0.26211695763643017,3.771754026412964
0.24990843608838964,3.774470090866089
0.25894274203393963,3.777174949645996
0.2530826516908802,3.7799174785614014
0.2511292882431937,3.782620668411255
0.2611402759125869,3.785329580307007
0.2626052984983518,3.7880361080169678
0.2491759247955072,3.790785074234009
0.25430350384568423,3.793492078781128
0.24795507264070316,3.796215057373047
0.24819924307166397,3.798924684524536
0.2540593334147234,3.8017349243164062
0.25698937858625315,3.8044440746307373
0.24526919790013424,3.8071601390838623
0.2508851178122329,3.810009002685547
0.24258332315956532,3.812721014022827
0.24087413014283965,3.815431594848633
0.25430350384568423,3.818134069442749
0.2540593334147234,3.8208742141723633
0.24502502746917343,3.823589324951172
0.24990843608838964,3.826296806335449
0.24356000488340857,3.8290092945098877
0.24380417531436938,3.831770420074463
0.2530826516908802,3.834486961364746
0.2530826516908802,3.837193012237549
0.24526919790013424,3.8399407863616943
0.2516176291051153,3.8426425457000732
0.2508851178122329,3.845360279083252
0.2508851178122329,3.8480708599090576
0.26870955927237206,3.8509161472320557
0.2672445366866072,3.853630304336548
0.26382615065315584,3.8563342094421387
0.2648028323769991,3.8590407371520996
0.2652911732389207,3.86179256439209
0.2611402759125869,3.8645031452178955
0.2745696496154315,3.8672075271606445
0.2767671834940788,3.8699495792388916
0.2738371383225491,3.872661590576172
0.272616286167745,3.8753767013549805
0.2784763765108045,3.878086805343628
0.27749969478696124,3.8808298110961914
0.28921987547308015,3.8835647106170654
0.2901965571969234,3.8862695693969727
0.28751068245635447,3.8889784812927246
0.2792088878036869,3.891720771789551
0.2860456598705896,3.8944313526153564
0.2789647173727261,3.8971428871154785
0.2809180808204126,3.899890422821045
0.28677817116347204,3.9025981426239014
0.2831156146990599,3.9053070545196533
0.2696862409962153,3.908015012741089
0.28506897814674637,3.910756826400757
0.2770113539250396,3.9134669303894043
0.27749969478696124,3.9161758422851562
0.28897570504211934,3.9188857078552246
0.28482480771578556,3.921633005142212
0.2716396044439018,3.924340009689331
0.2794530582346477,3.9270517826080322
0.27041875228909773,3.9297900199890137
0.2694420705652545,3.932504177093506
0.28506897814674637,3.9352097511291504
0.28238310340617745,3.937913179397583
0.27090709315101935,3.9406559467315674
0.281650592113295,3.943361282348633
0.27359296789158827,3.946082592010498
0.28018556952753015,3.9488043785095215
0.29898669271151257,3.9515576362609863
0.29654498840190446,3.9542734622955322
0.2811622512513734,3.9569852352142334
0.29410328409229636,3.959733247756958
0.2926382615065315,3.9624457359313965
0.28506897814674637,3.965153932571411
0.29654498840190446,3.9678640365600586
0.2931266023684531,3.9706292152404785
0.2831156146990599,3.9733505249023438
0.285557319008668,3.9760618209838867
0.2831156146990599,3.978764057159424
0.2792088878036869,3.981510877609253
0.28897570504211934,3.984227180480957
0.28726651202539366,3.9872586727142334
0.2787205469417653,3.9900174140930176
0.28506897814674637,3.9927377700805664
0.2831156146990599,3.995445728302002
0.2789647173727261,3.998159885406494
0.29605664753998284,4.000894069671631
0.2950799658161396,4.003605127334595
0.29190575021364906,4.006313800811768
0.2887315346111585,4.009023666381836
0.28897570504211934,4.011770248413086
0.28506897814674637,4.014488697052002
0.29385911366133555,4.017196178436279
0.2977658405567085,4.019944429397583
0.2955683066780612,4.022653102874756
0.29361494323037474,4.025365829467773
0.2980100109876693,4.0280749797821045
0.29385911366133555,4.030827760696411
0.29874252228055176,4.033545970916748
0.2977658405567085,4.036257028579712
0.2926382615065315,4.038967132568359
0.28213893297521664,4.041703701019287
0.2921499206446099,4.044410228729248
0.2860456598705896,4.047137498855591
0.28970821633500177,4.049890518188477
0.29630081797094365,4.052603244781494
0.29654498840190446,4.055314302444458
0.28433646685386393,4.058023929595947
0.294591624954218,4.060775279998779
0.28677817116347204,4.063485860824585
0.2933707727994139,4.0662007331848145
0.2992308631424734,4.068920373916626
0.29605664753998284,4.071669101715088
0.2809180808204126,4.074385404586792
0.2931266023684531,4.0770909786224365
0.28433646685386393,4.079833984375
0.2840922964229031,4.082540273666382
0.2977658405567085,4.085246801376343
0.2923940910755707,4.087960720062256
0.28433646685386393,4.09071946144104
0.2882431937492369,4.093427658081055
0.2858014894396288,4.096134901046753
0.27749969478696124,4.0988428592681885
0.2899523867659626,4.101583003997803
0.28897570504211934,4.104292869567871
0.2794530582346477,4.1070029735565186
0.2814064216823342,4.109741926193237
0.2745696496154315,4.112443685531616
0.26358198022219503,4.115148305892944
0.2743254791844707,4.117846488952637
0.2718837748748626,4.120589971542358
0.2599194237577829,4.123292446136475
0.2679770479794896,4.125994443893433
0.2694420705652545,4.12870979309082
0.2626052984983518,4.131451606750488
0.27359296789158827,4.134153842926025
0.272616286167745,4.136872053146362
0.272616286167745,4.139617681503296
0.2748138200463923,4.1423258781433105
0.2794530582346477,4.145031213760376
0.27359296789158827,4.147753715515137
0.28213893297521664,4.15051007270813
0.28213893297521664,4.153220176696777
0.27798803564888286,4.155926942825317
0.27066292272005854,4.158635139465332
0.27749969478696124,4.161369562149048
0.2723721157367842,4.164079189300537
0.27554633133927475,4.166780233383179
0.28042973995849096,4.169517278671265
0.2809180808204126,4.17222785949707
0.27041875228909773,4.174930095672607
0.27823220607984367,4.177640914916992
0.272616286167745,4.180382251739502
0.28042973995849096,4.183098077774048
0.2909290684898058,4.185802698135376
0.28726651202539366,4.188511848449707
0.2743254791844707,4.191247463226318
0.2921499206446099,4.193957090377808
0.2840922964229031,4.196659326553345
0.2831156146990599,4.199402570724487
0.2970333292638261,4.202110052108765
0.2899523867659626,4.204817771911621
0.27505799047735313,4.207525968551636
0.2882431937492369,4.210282802581787
0.2794530582346477,4.212989330291748
0.27286045659870584,4.215698957443237
0.2862898303015504,4.218399286270142
0.28213893297521664,4.2211387157440186
0.27310462702966665,4.2238452434539795
0.28042973995849096,4.226557970046997
0.27310462702966665,4.229324102401733
0.26870955927237206,4.232039928436279
0.28238310340617745,4.234747886657715
0.27823220607984367,4.237449645996094
0.26577951410084233,4.2401885986328125
0.2748138200463923,4.24289083480835
0.27579050177023556,4.24559211730957
0.2716396044439018,4.2483069896698
0.2860456598705896,4.2510528564453125
0.2840922964229031,4.2537596225738525
0.2770113539250396,4.256469011306763
0.276523013063118,4.259182691574097
0.276523013063118,4.261926651000977
0.2723721157367842,4.264638900756836
0.2809180808204126,4.267338514328003
0.2794530582346477,4.270068407058716
0.27579050177023556,4.272768497467041
0.2716396044439018,4.2754738330841064
0.27823220607984367,4.278177499771118
0.272616286167745,4.280919790267944
0.2811622512513734,4.283627510070801
0.285557319008668,4.286329746246338
0.28042973995849096,4.28904128074646
0.2699304114271761,4.291770935058594
0.276523013063118,4.294469356536865
0.27066292272005854,4.297171115875244
0.2716396044439018,4.2999107837677
0.28018556952753015,4.302619457244873
0.27823220607984367,4.305325746536255
0.2645586619460383,4.308024168014526
0.27530216090831394,4.310829401016235
0.2677328775485288,4.313526630401611
0.27066292272005854,4.316230773925781
0.28213893297521664,4.318934917449951
0.27969722866560853,4.3216774463653564
0.2672445366866072,4.324384689331055
0.2794530582346477,4.327085733413696
0.27066292272005854,4.329849720001221
0.27041875228909773,4.332555532455444
0.2860456598705896,4.335261583328247
0.281650592113295,4.337966203689575
0.2679770479794896,4.3407065868377686
0.276523013063118,4.343414545059204
0.2699304114271761,4.346118927001953
0.26358198022219503,4.348842620849609
0.27774386521792205,4.351605653762817
0.27579050177023556,4.354313611984253
0.2652911732389207,4.357018232345581
0.27041875228909773,4.359751224517822
0.26602368453180314,4.362458944320679
0.2626052984983518,4.36515998840332
0.27530216090831394,4.367870330810547
0.2723721157367842,4.3706042766571045
0.26651202539372476,4.373308420181274
0.2672445366866072,4.376018762588501
0.2655353436698815,4.378725528717041
0.2626052984983518,4.381463050842285
0.27579050177023556,4.3841681480407715
0.2743254791844707,4.3868794441223145
0.2696862409962153,4.389621734619141
0.26602368453180314,4.392316579818726
0.2691979001342937,4.395019292831421
0.2655353436698815,4.397727966308594
0.2738371383225491,4.4004716873168945
0.27749969478696124,4.403178453445435
0.27310462702966665,4.405891180038452
0.26358198022219503,4.408593416213989
0.2718837748748626,4.411330938339233
0.2650470028079599,4.414040803909302
0.27066292272005854,4.416745901107788
0.28018556952753015,4.419478178024292
0.27823220607984367,4.422185897827148
0.2655353436698815,4.424900531768799
0.2762788426321572,4.427606105804443
0.2691979001342937,4.430337429046631
0.27334879746062746,4.4330432415008545
0.2833597851300207,4.435747861862183
0.28213893297521664,4.43845009803772
0.2677328775485288,4.441177606582642
0.27798803564888286,4.443887710571289
0.2694420705652545,4.446595191955566
0.2696862409962153,4.449361562728882
0.2860456598705896,4.45207142829895
0.2831156146990599,4.454773902893066
0.2694420705652545,4.4574737548828125
0.2784763765108045,4.460216522216797
0.2699304114271761,4.462916612625122
0.267488707117568,4.465627670288086
0.2831156146990599,4.468329906463623
0.2814064216823342,4.4710633754730225
0.272616286167745,4.47376561164856
0.2794530582346477,4.476466178894043
0.27579050177023556,4.479164123535156
0.27554633133927475,4.481894016265869
0.2909290684898058,4.484605073928833
0.28897570504211934,4.487620830535889
0.2794530582346477,4.490365505218506
0.2860456598705896,4.493076324462891
0.28238310340617745,4.495780944824219
0.2792088878036869,4.498487949371338
0.29361494323037474,4.501226186752319
0.29117323892076663,4.503946781158447
0.28287144426809907,4.506797790527344
0.2860456598705896,4.510023593902588
0.28213893297521664,4.51282811164856
0.2794530582346477,4.515601396560669
0.29410328409229636,4.518780708312988
0.2921499206446099,4.522018671035767
0.276523013063118,4.524792909622192
0.28897570504211934,4.527541399002075
0.281650592113295,4.530628204345703
0.2909290684898058,4.533785820007324
0.29825418141863014,4.536672115325928
0.2948357953851788,4.539828300476074
0.2921499206446099,4.542984962463379
0.29117323892076663,4.546072483062744
0.28726651202539366,4.549161434173584
0.3024050787449639,4.552291631698608
0.2972774996947869,4.555397033691406
0.2811622512513734,4.5584940910339355
0.28677817116347204,4.561710834503174
0.27823220607984367,4.5646045207977295
0.2882431937492369,4.567774772644043
0.2884873641801977,4.570997714996338
0.28018556952753015,4.573818922042847
0.28506897814674637,4.576860666275024
0.28018556952753015,4.579826593399048
0.2794530582346477,4.5828492641448975
0.29361494323037474,4.585833787918091
0.2899523867659626,4.588626146316528
0.2745696496154315,4.591842174530029
0.28213893297521664,4.594883918762207
0.27969722866560853,4.597811222076416
0.28751068245635447,4.60066556930542
0.2887315346111585,4.603606939315796
0.2833597851300207,4.606617450714111
0.28433646685386393,4.609774827957153
0.28213893297521664,4.612779855728149
0.2789647173727261,4.615952968597412
0.29605664753998284,4.619064807891846
0.2931266023684531,4.622170925140381
0.2789647173727261,4.625268220901489
0.2879990233182761,4.628381967544556
0.2811622512513734,4.631515026092529
0.2970333292638261,4.634602308273315
0.29630081797094365,4.6375086307525635
0.28726651202539366,4.640753507614136
0.29385911366133555,4.643854141235352
0.28506897814674637,4.6467180252075195
0.28506897814674637,4.649850368499756
0.29581247710902203,4.652705907821655
0.2931266023684531,4.655589580535889
0.2794530582346477,4.658745050430298
0.2879990233182761,4.661672115325928
0.2811622512513734,4.664446115493774
0.29117323892076663,4.6676459312438965
0.2931266023684531,4.670838117599487
0.28433646685386393,4.67362904548645
0.2879990233182761,4.67640233039856
0.2853131485777072,4.679513216018677
0.2831156146990599,4.68261194229126
0.29898669271151257,4.685503244400024
0.29630081797094365,4.688570022583008
0.27969722866560853,4.691797971725464
0.28897570504211934,4.694983720779419
0.281650592113295,4.698070526123047
0.2921499206446099,4.701208114624023
0.29190575021364906,4.704352140426636
0.2814064216823342,4.707390546798706
0.2887315346111585,4.7105865478515625
0.28042973995849096,4.7134740352630615
0.2840922964229031,4.716645002365112
0.2975216701257477,4.719841003417969
0.2899523867659626,4.722676992416382
0.27969722866560853,4.725695610046387
0.28726651202539366,4.728571891784668
0.28238310340617745,4.731628179550171
0.2950799658161396,4.734685182571411
0.2928824319374923,4.737482309341431
0.2836039555609815,4.7404255867004395
0.28726651202539366,4.743616819381714
0.2811622512513734,4.746650218963623
0.27774386521792205,4.7494964599609375
0.29190575021364906,4.752317428588867
0.2882431937492369,4.755368232727051
0.2718837748748626,4.7585062980651855
0.2833597851300207,4.761450529098511
0.27749969478696124,4.76451301574707
0.2860456598705896,4.767656564712524
0.2879990233182761,4.770794630050659
0.2789647173727261,4.773893356323242
0.2853131485777072,4.7769858837127686
0.27823220607984367,4.7801408767700195
0.2794530582346477,4.783261299133301
0.29166157978268825,4.786295652389526
0.28921987547308015,4.789438247680664
0.28018556952753015,4.792539119720459
0.2831156146990599,4.795550584793091
0.2772555243560004,4.79856276512146
0.29190575021364906,4.801504850387573
0.2899523867659626,4.804312467575073
0.28018556952753015,4.807048082351685
0.2860456598705896,4.809858560562134
0.2809180808204126,4.812568187713623
0.27554633133927475,4.815271377563477
0.28897570504211934,4.817978382110596
0.2882431937492369,4.82078742980957
0.28018556952753015,4.82349705696106
0.2809180808204126,4.826202630996704
0.28042973995849096,4.828907012939453
0.2762788426321572,4.831650257110596
0.28897570504211934,4.8343589305877686
0.2887315346111585,4.8370630741119385
0.2831156146990599,4.839807510375977
0.2792088878036869,4.842519521713257
0.28262727383713826,4.845221996307373
0.2762788426321572,4.847927093505859
0.28213893297521664,4.85067081451416
0.2860456598705896,4.853392601013184
0.28018556952753015,4.856109380722046
0.2716396044439018,4.858813524246216
0.2794530582346477,4.861567735671997
0.27359296789158827,4.8642661571502686
0.2784763765108045,4.866970539093018
0.28702234159443285,4.86971640586853
0.28213893297521664,4.872421503067017
0.26895372970333287,4.875128269195557
0.2811622512513734,4.877832412719727
0.2745696496154315,4.880575180053711
0.27505799047735313,4.88328218460083
0.28702234159443285,4.885982036590576
0.2831156146990599,4.888690710067749
0.2677328775485288,4.891504287719727
0.2814064216823342,4.894216537475586
0.27310462702966665,4.896920680999756
0.2716396044439018,4.89965295791626
0.28702234159443285,4.902362108230591
0.28433646685386393,4.905065059661865
0.27066292272005854,4.907768487930298
0.281650592113295,4.910515069961548
0.2723721157367842,4.913221836090088
0.2718837748748626,4.915921211242676
0.28726651202539366,4.918621301651001
0.28433646685386393,4.921350717544556
0.2718837748748626,4.924051523208618
0.2792088878036869,4.926759719848633
0.2743254791844707,4.929516553878784
0.27066292272005854,4.932225227355957
0.2833597851300207,4.934922218322754
0.2809180808204126,4.9376380443573
0.27041875228909773,4.9403767585754395
0.27359296789158827,4.943079948425293
0.2718837748748626,4.945789337158203
0.26822121841045043,4.94849419593811
0.2809180808204126,4.951267957687378
0.27969722866560853,4.953994035720825
0.2745696496154315,4.9567015171051025
0.272616286167745,4.959440231323242
0.27554633133927475,4.9621453285217285
0.27041875228909773,4.964856386184692
0.2811622512513734,4.967564821243286
0.28238310340617745,4.970299959182739
0.27774386521792205,4.9730095863342285
0.271395434012941,4.9757184982299805
0.27749969478696124,4.978424549102783
0.271395434012941,4.981163024902344
0.27749969478696124,4.983869791030884
0.2833597851300207,4.986890554428101
0.27749969478696124,4.989642381668091
0.2699304114271761,4.992350816726685
0.2762788426321572,4.995057106018066
0.27115126358198016,4.997770309448242
0.276523013063118,5.000509023666382
0.28238310340617745,5.003215789794922
0.2792088878036869,5.0059263706207275
0.2670003662556464,5.008630990982056
0.27530216090831394,5.011371374130249
0.26846538884141125,5.014072895050049
0.27115126358198016,5.016774654388428
0.28042973995849096,5.0195136070251465
0.27823220607984367,5.022218704223633
0.26382615065315584,5.024929046630859
0.2772555243560004,5.027640342712402
0.26822121841045043,5.030375242233276
0.27066292272005854,5.033080339431763
0.2831156146990599,5.0357842445373535
0.2794530582346477,5.038485050201416
0.2655353436698815,5.041226148605347
0.276523013063118,5.0439324378967285
0.2679770479794896,5.046641826629639
0.26675619582468557,5.049395561218262
0.28433646685386393,5.0521080493927
0.2811622512513734,5.05482029914856
0.2694420705652545,5.0575270652771
0.27774386521792205,5.060274839401245
0.2723721157367842,5.062993764877319
0.27041875228909773,5.065697431564331
0.28482480771578556,5.068403959274292
0.28189476254425583,5.0711376667022705
0.2723721157367842,5.073843955993652
0.27530216090831394,5.076559543609619
0.27286045659870584,5.079297780990601
0.26870955927237206,5.082007646560669
0.28287144426809907,5.084711790084839
0.2809180808204126,5.087421417236328
0.27530216090831394,5.090166091918945
0.2738371383225491,5.092868089675903
0.27530216090831394,5.095577955245972
0.2716396044439018,5.098283529281616
0.2806739103894518,5.101027727127075
0.2806739103894518,5.103741407394409
0.27530216090831394,5.1064488887786865
0.2696862409962153,5.109153747558594
0.27579050177023556,5.111888885498047
0.2694420705652545,5.114601135253906
0.27554633133927475,5.117311000823975
0.2811622512513734,5.120059490203857
0.276523013063118,5.122771501541138
0.2672445366866072,5.125483274459839
0.2743254791844707,5.128190279006958
0.2691979001342937,5.130928993225098
0.2716396044439018,5.13363790512085
0.2811622512513734,5.136357545852661
0.2794530582346477,5.139063119888306
0.2652911732389207,5.14179539680481
0.2789647173727261,5.144503831863403
0.2716396044439018,5.147205352783203
0.271395434012941,5.1499412059783936
0.2858014894396288,5.152651786804199
0.28506897814674637,5.155364990234375
0.2716396044439018,5.158070802688599
0.28287144426809907,5.16081428527832
0.2738371383225491,5.163523435592651
0.27334879746062746,5.1662373542785645
0.2879990233182761,5.168943643569946
0.2853131485777072,5.1717023849487305
0.2723721157367842,5.174415111541748
0.28213893297521664,5.177122354507446
0.27530216090831394,5.179858684539795
0.27530216090831394,5.182569742202759
0.2904407276278842,5.185279369354248
0.28726651202539366,5.187988042831421
0.2762788426321572,5.190728425979614
0.2811622512513734,5.193439722061157
0.27749969478696124,5.1961469650268555
0.27823220607984367,5.198854684829712
0.29410328409229636,5.201594352722168
0.2928824319374923,5.204305648803711
0.2877548528873153,5.207008361816406
0.28897570504211934,5.209758043289185
0.2901965571969234,5.2124621868133545
0.2840922964229031,5.215169906616211
0.2953241362471004,5.217878818511963
0.29581247710902203,5.2206268310546875
0.29117323892076663,5.2233335971832275
0.28702234159443285,5.226047515869141
0.28946404590404096,5.228750228881836
0.28482480771578556,5.2314958572387695
0.2926382615065315,5.234210729598999
0.2950799658161396,5.2369163036346436
0.2909290684898058,5.239657163619995
0.28213893297521664,5.242367744445801
0.28921987547308015,5.245072841644287
0.2836039555609815,5.247779130935669
0.28897570504211934,5.250523090362549
0.29605664753998284,5.253235816955566
0.2931266023684531,5.255953073501587
0.28018556952753015,5.258667945861816
0.2884873641801977,5.261425733566284
0.281650592113295,5.264136791229248
0.28506897814674637,5.2668516635894775
0.2948357953851788,5.269601345062256
0.294591624954218,5.27231502532959
0.2794530582346477,5.275024175643921
0.29117323892076663,5.277724742889404
0.2833597851300207,5.280473232269287
0.2838481259919423,5.283176422119141
0.2999633744353558,5.285890340805054
0.2994750335734342,5.288600444793701
0.2836039555609815,5.291514158248901
0.29605664753998284,5.294231653213501
0.28702234159443285,5.296978712081909
0.285557319008668,5.299727916717529
0.30045171529727743,5.302441835403442
0.2975216701257477,5.305152654647827
0.2831156146990599,5.307860851287842
0.2921499206446099,5.310608625411987
0.28482480771578556,5.313315153121948
0.2838481259919423,5.316016435623169
0.299719204004395,5.318725347518921
0.2972774996947869,5.32146430015564
0.2858014894396288,5.32417631149292
0.29141740935172744,5.32688307762146
0.2858014894396288,5.329691648483276
0.27969722866560853,5.332409620285034
0.2931266023684531,5.335118770599365
0.29141740935172744,5.337849855422974
0.28213893297521664,5.340630292892456
0.28726651202539366,5.343347549438477
0.28433646685386393,5.3460612297058105
0.2814064216823342,5.348762512207031
0.29605664753998284,5.351502180099487
0.29385911366133555,5.354228496551514
0.2877548528873153,5.356954097747803
0.28726651202539366,5.3597118854522705
0.28726651202539366,5.36242151260376
0.28262727383713826,5.365127325057983
0.2926382615065315,5.367835998535156
0.2931266023684531,5.370580196380615
0.2882431937492369,5.3732874393463135
0.28213893297521664,5.37599515914917
0.2882431937492369,5.3787031173706055
0.28287144426809907,5.381442546844482
0.2909290684898058,5.38415002822876
0.3016725674520815,5.385849714279175
0.2972774996947869,5.387202262878418
0.29654498840190446,5.388561248779297
0.28897570504211934,5.3899359703063965
0.28238310340617745,5.391290187835693
0.2923940910755707,5.3926427364349365
0.2928824319374923,5.393994092941284
0.2928824319374923,5.395350694656372
0.28506897814674637,5.396702766418457
0.28482480771578556,5.398058652877808
0.28677817116347204,5.399430751800537
0.2975216701257477,5.400785684585571
0.2970333292638261,5.402136564254761
0.29605664753998284,5.403491497039795
0.2980100109876693,5.404842376708984
0.290684898058845,5.406198024749756
0.2833597851300207,5.407553672790527
0.28921987547308015,5.408907413482666
0.2950799658161396,5.4102911949157715
0.2921499206446099,5.411648511886597
0.28726651202539366,5.413003921508789
0.28702234159443285,5.414355993270874
0.28726651202539366,5.415710210800171
0.2950799658161396,5.417066335678101
0.2992308631424734,5.418421506881714
0.29605664753998284,5.419795989990234
0.2992308631424734,5.421149730682373
0.2931266023684531,5.422503709793091
0.285557319008668,5.423857927322388
0.2862898303015504,5.425210237503052
0.29581247710902203,5.426565647125244
0.2931266023684531,5.427922487258911
0.28897570504211934,5.42929220199585
0.2882431937492369,5.430646657943726
0.2877548528873153,5.432000637054443
0.29410328409229636,5.433351755142212
0.30264924917592473,5.434706687927246
0.299719204004395,5.436062812805176
0.30118422659015986,5.437419652938843
0.29874252228055176,5.438774347305298
0.2901965571969234,5.440167188644409
0.28677817116347204,5.441533088684082
0.2953241362471004,5.4428911209106445
0.2950799658161396,5.444248199462891
0.29190575021364906,5.44560432434082
0.28897570504211934,5.44696307182312
0.28921987547308015,5.44831657409668
0.29410328409229636,5.449698209762573
0.3043584421926504,5.451054096221924
0.30338176046880716,5.452408790588379
0.30362593089976797,5.453765869140625
0.3046026126236112,5.45513129234314
0.2967891588328653,5.456495523452759
0.2899523867659626,5.457849979400635
0.2980100109876693,5.459200143814087
0.3016725674520815,5.460576057434082
0.2970333292638261,5.461927175521851
0.29385911366133555,5.463285684585571
0.2933707727994139,5.464639186859131
0.2948357953851788,5.465996026992798
0.30728848736418013,5.4673497676849365
0.3085093395189842,5.468709468841553
0.30582346477841527,5.470080375671387
0.308753509949945,5.471437454223633
0.3016725674520815,5.472789764404297
0.29361494323037474,5.47414231300354
0.2980100109876693,5.475497722625732
0.3038701013307288,5.476854085922241
0.30069588572823824,5.478208065032959
0.29605664753998284,5.4795825481414795
0.29581247710902203,5.480944871902466
0.29654498840190446,5.482303619384766
0.30557929434745446,5.483656167984009
0.31021853253570986,5.485013723373413
0.30582346477841527,5.4870991706848145
0.3019167378830423,5.489901304244995
0.29385911366133555,5.4926228523254395
0.29874252228055176,5.495340347290039
0.2931266023684531,5.498041868209839
0.2999633744353558,5.5007829666137695
0.30557929434745446,5.5034918785095215
0.30069588572823824,5.506202936172485
0.2882431937492369,5.508913516998291
0.2950799658161396,5.511658191680908
0.28751068245635447,5.514364719390869
0.2909290684898058,5.517077684402466
0.30118422659015986,5.519819736480713
0.2977658405567085,5.522533178329468
0.28262727383713826,5.525243520736694
0.2950799658161396,5.5279552936553955
0.28702234159443285,5.530723333358765
0.285557319008668,5.533432722091675
0.2977658405567085,5.536144971847534
0.2953241362471004,5.538859605789185
0.28042973995849096,5.54163670539856
0.2928824319374923,5.544358253479004
0.2833597851300207,5.547067403793335
0.2836039555609815,5.549812316894531
0.29849835184959095,5.552516460418701
0.2955683066780612,5.555229663848877
0.2811622512513734,5.55794882774353
0.29141740935172744,5.56070351600647
0.28458063728482474,5.563418626785278
0.28482480771578556,5.566128969192505
0.29874252228055176,5.56885027885437
0.2967891588328653,5.57159948348999
0.28506897814674637,5.574337005615234
0.29190575021364906,5.577070236206055
0.28726651202539366,5.579817295074463
0.28433646685386393,5.582531452178955
0.29874252228055176,5.585243225097656
0.29581247710902203,5.587957382202148
0.2860456598705896,5.590703248977661
0.28946404590404096,5.593409299850464
0.2882431937492369,5.5961220264434814
0.2831156146990599,5.598825454711914
0.2970333292638261,5.601567029953003
0.29605664753998284,5.604277849197388
0.28921987547308015,5.606982469558716
0.2877548528873153,5.609724998474121
0.2899523867659626,5.6124351024627686
0.28506897814674637,5.6151511669158936
0.2931266023684531,5.617860317230225
0.29581247710902203,5.6206090450286865
0.28946404590404096,5.623322486877441
0.2836039555609815,5.626034736633301
0.290684898058845,5.628748655319214
0.28506897814674637,5.631495475769043
0.2926382615065315,5.6342082023620605
0.2970333292638261,5.636919260025024
0.2931266023684531,5.639663219451904
0.2814064216823342,5.6423659324646
0.2909290684898058,5.64507794380188
0.28458063728482474,5.647786617279053
0.2882431937492369,5.650555610656738
0.2970333292638261,5.653265476226807
0.29605664753998284,5.656019687652588
0.28213893297521664,5.6587584018707275
0.2931266023684531,5.661502361297607
0.2853131485777072,5.6642022132873535
0.28726651202539366,5.666911363601685
0.2999633744353558,5.669667720794678
0.2950799658161396,5.672370433807373
0.2794530582346477,5.675071716308594
0.2933707727994139,5.677781581878662
0.28433646685386393,5.680538654327393
0.28189476254425583,5.683245897293091
0.2980100109876693,5.685953140258789
0.2948357953851788,5.688668489456177
0.28018556952753015,5.6914286613464355
0.2901965571969234,5.694136619567871
0.2836039555609815,5.696851015090942
0.28189476254425583,5.699593782424927
0.2972774996947869,5.702308654785156
0.2948357953851788,5.705023765563965
0.28238310340617745,5.707728862762451
0.28897570504211934,5.710482358932495
0.2833597851300207,5.713191509246826
0.28213893297521664,5.71589469909668
0.29581247710902203,5.718608617782593
0.2926382615065315,5.7213499546051025
0.2833597851300207,5.724052429199219
0.285557319008668,5.726755619049072
0.28506897814674637,5.729494571685791
0.28042973995849096,5.732215642929077
0.2931266023684531,5.734928131103516
0.2926382615065315,5.7376391887664795
0.28726651202539366,5.740401029586792
0.2853131485777072,5.743109941482544
0.2860456598705896,5.745823860168457
0.28018556952753015,5.748535871505737
0.28946404590404096,5.7512733936309814
0.2909290684898058,5.7539849281311035
0.285557319008668,5.756704330444336
0.2794530582346477,5.759462833404541
0.28506897814674637,5.76218056678772
0.2789647173727261,5.764891862869263
0.28433646685386393,5.767603158950806
0.28897570504211934,5.770373344421387
0.28482480771578556,5.773083686828613
0.27359296789158827,5.775785446166992
0.2833597851300207,5.778499364852905
0.2767671834940788,5.78124213218689
0.28018556952753015,5.783958196640015
0.2899523867659626,5.786674499511719
0.28726651202539366,5.789417743682861
0.27334879746062746,5.7921302318573
0.2833597851300207,5.794832229614258
0.27554633133927475,5.797536611557007
0.27579050177023556,5.800278186798096
0.2882431937492369,5.802983045578003
0.28702234159443285,5.805692672729492
0.272616286167745,5.808401823043823
0.2811622512513734,5.81114935874939
0.2718837748748626,5.813866376876831
0.2699304114271761,5.816579818725586
0.28482480771578556,5.819311857223511
0.28238310340617745,5.822015047073364
0.26870955927237206,5.824722528457642
0.27994139909656934,5.8274312019348145
0.27359296789158827,5.830174684524536
0.27334879746062746,5.832881927490234
0.2862898303015504,5.83559250831604
0.28433646685386393,5.838300466537476
0.27359296789158827,5.841115474700928
0.28018556952753015,5.843827486038208
0.27554633133927475,5.8465352058410645
0.27310462702966665,5.84933614730835
0.28897570504211934,5.85205864906311
0.28702234159443285,5.854773759841919
0.27749969478696124,5.857482671737671
0.2806739103894518,5.8602399826049805
0.2784763765108045,5.862954378128052
0.27554633133927475,5.8656699657440186
0.2882431937492369,5.868377447128296
0.2860456598705896,5.871123790740967
0.2792088878036869,5.873828649520874
0.27798803564888286,5.8765342235565186
0.2784763765108045,5.879263401031494
0.2743254791844707,5.8819780349731445
0.2860456598705896,5.884678363800049
0.2860456598705896,5.887438774108887
0.28506897814674637,5.890207767486572
0.2811622512513734,5.892920732498169
0.2860456598705896,5.895624160766602
0.2794530582346477,5.898335695266724
0.28946404590404096,5.901073694229126
0.294591624954218,5.90377950668335
0.28970821633500177,5.906482934951782
0.27969722866560853,5.909188508987427
0.28897570504211934,5.911927938461304
0.281650592113295,5.91463041305542
0.28433646685386393,5.91733193397522
0.29117323892076663,5.920069217681885
0.28946404590404096,5.9227728843688965
0.2760346722011964,5.925479173660278
0.28921987547308015,5.928179025650024
0.2809180808204126,5.930915594100952
0.2814064216823342,5.9336113929748535
0.29410328409229636,5.936323404312134
0.29117323892076663,5.939026594161987
0.27579050177023556,5.941762208938599
0.2882431937492369,5.944473743438721
0.27774386521792205,5.94717812538147
0.27579050177023556,5.949911594390869
0.29190575021364906,5.95262336730957
0.28921987547308015,5.955327749252319
0.27749969478696124,5.958045244216919
0.28726651202539366,5.96079158782959
0.2811622512513734,5.9635069370269775
0.27969722866560853,5.966220378875732
0.294591624954218,5.968937397003174
0.29166157978268825,5.97168493270874
0.28018556952753015,5.974402904510498
0.28506897814674637,5.97711181640625
0.2814064216823342,5.979844093322754
0.27823220607984367,5.982553958892822
0.29190575021364906,5.9852614402771
0.2899523867659626,5.988265752792358
0.28018556952753015,5.991015672683716
0.2860456598705896,5.993718862533569
0.28262727383713826,5.996422052383423
0.28042973995849096,5.999122381210327
0.294591624954218,6.001863241195679
0.29117323892076663,6.004566192626953
0.2831156146990599,6.007263898849487
0.28238310340617745,6.010024070739746
0.281650592113295,6.012722015380859
0.27749969478696124,6.015426397323608
0.2879990233182761,6.018133878707886
0.2882431937492369,6.020872592926025
0.28238310340617745,6.023573160171509
0.27823220607984367,6.026273488998413
0.2833597851300207,6.028977155685425
0.2770113539250396,6.031720161437988
0.2831156146990599,6.034426927566528
0.2909290684898058,6.037125587463379
0.2831156146990599,6.0398619174957275
0.27286045659870584,6.042573690414429
0.28287144426809907,6.045278072357178
0.27554633133927475,6.047983884811401
0.2792088878036869,6.0507261753082275
0.28726651202539366,6.053429841995239
0.28433646685386393,6.0561301708221436
0.27066292272005854,6.058837890625
0.28482480771578556,6.06158447265625
0.276523013063118,6.064290761947632
0.2762788426321572,6.066991567611694
0.28897570504211934,6.06973123550415
0.28677817116347204,6.072437286376953
0.2716396044439018,6.07514762878418
0.28482480771578556,6.077857494354248
0.27530216090831394,6.080606460571289
0.27530216090831394,6.08331823348999
0.2928824319374923,6.0860278606414795
0.28897570504211934,6.08873724937439
0.27579050177023556,6.091475009918213
0.28506897814674637,6.094182014465332
0.2789647173727261,6.0968897342681885
0.27530216090831394,6.099632501602173
0.28946404590404096,6.102336168289185
0.28702234159443285,6.1050474643707275
0.27530216090831394,6.10775089263916
0.2811622512513734,6.110489845275879
0.27749969478696124,6.113197088241577
0.2743254791844707,6.115904808044434
0.28921987547308015,6.11860466003418
0.2860456598705896,6.121350288391113
0.2792088878036869,6.124058485031128
0.2809180808204126,6.126767158508301
0.2811622512513734,6.129528284072876
0.27579050177023556,6.132240295410156
0.28677817116347204,6.1349451541900635
0.2862898303015504,6.1376519203186035
0.27823220607984367,6.14038872718811
0.27579050177023556,6.143094539642334
0.28018556952753015,6.145801305770874
0.2743254791844707,6.1485114097595215
0.2833597851300207,6.15124773979187
0.2882431937492369,6.153952598571777
0.28482480771578556,6.156660795211792
0.27530216090831394,6.159419775009155
0.2840922964229031,6.162129878997803
0.27749969478696124,6.164830207824707
0.2811622512513734,6.1675355434417725
0.2887315346111585,6.170277118682861
0.28726651202539366,6.172989845275879
0.27505799047735313,6.175699472427368
0.2860456598705896,6.178406715393066
0.27774386521792205,6.181138038635254
0.2789647173727261,6.183843612670898
0.2909290684898058,6.186550140380859
0.28653400073251123,6.189288139343262
0.2716396044439018,6.191997289657593
0.2860456598705896,6.194711208343506
0.2772555243560004,6.1974241733551025
0.276523013063118,6.200161695480347
0.29434745452325717,6.202871084213257
0.28921987547308015,6.205575227737427
0.27505799047735313,6.208280801773071
0.28702234159443285,6.2110209465026855
0.2784763765108045,6.213728904724121
0.27749969478696124,6.216439723968506
0.2926382615065315,6.2191431522369385
0.28897570504211934,6.221878290176392
0.27774386521792205,6.224583387374878
0.28433646685386393,6.227283954620361
0.28042973995849096,6.230025053024292
0.2762788426321572,6.232756614685059
0.2901965571969234,6.235467433929443
0.2860456598705896,6.238173484802246
0.276523013063118,6.240912914276123
0.28042973995849096,6.243618726730347
0.2787205469417653,6.24632453918457
0.27286045659870584,6.249027967453003
0.2860456598705896,6.251779317855835
0.28482480771578556,6.254480600357056
0.27749969478696124,6.257191181182861
0.27505799047735313,6.25993013381958
0.2784763765108045,6.262638330459595
0.272616286167745,6.265344858169556
0.2831156146990599,6.268046140670776
0.2853131485777072,6.2707860469818115
0.281650592113295,6.273487567901611
0.27554633133927475,6.276197910308838
0.28042973995849096,6.278909206390381
0.27530216090831394,6.281651735305786
0.28287144426809907,6.284355640411377
0.28653400073251123,6.287063121795654
0.2840922964229031,6.289802074432373
0.2723721157367842,6.292505741119385
0.2831156146990599,6.295215845108032
0.27579050177023556,6.297917366027832
0.2784763765108045,6.300654888153076
0.28970821633500177,6.30336332321167
0.28702234159443285,6.306067943572998
0.2716396044439018,6.308762788772583
0.2853131485777072,6.311504125595093
0.2760346722011964,6.314206600189209
0.27505799047735313,6.316911697387695
0.28946404590404096,6.319644451141357
0.28726651202539366,6.322345972061157
0.27359296789158827,6.325053453445435
0.28433646685386393,6.32775354385376
0.2760346722011964,6.3304948806762695
0.2745696496154315,6.333207607269287
0.290684898058845,6.335920095443726
0.28751068245635447,6.338625192642212
0.2762788426321572,6.341364860534668
0.2831156146990599,6.34406852722168
0.2770113539250396,6.346776247024536
0.2743254791844707,6.349580526351929
0.28921987547308015,6.35228419303894
0.2862898303015504,6.354992389678955
0.27823220607984367,6.357699632644653
0.28213893297521664,6.3604512214660645
0.28042973995849096,6.3631672859191895
0.2745696496154315,6.365869045257568
0.28653400073251123,6.368571758270264
0.28433646685386393,6.371339559555054
0.2772555243560004,6.37404727935791
0.2772555243560004,6.376752138137817
0.2792088878036869,6.379490613937378
0.2738371383225491,6.382198333740234
0.2833597851300207,6.3849005699157715
0.28458063728482474,6.387603759765625
0.2784763765108045,6.39033842086792
0.272616286167745,6.3930394649505615
0.27823220607984367,6.395745754241943
0.2718837748748626,6.398449420928955
0.2772555243560004,6.401188850402832
0.2814064216823342,6.403889179229736
0.276523013063118,6.406593322753906
0.26602368453180314,6.409412145614624
0.276523013063118,6.412123918533325
0.2694420705652545,6.414834499359131
0.2723721157367842,6.4175403118133545
0.2840922964229031,6.420273065567017
0.2784763765108045,6.4229865074157715
0.26602368453180314,6.425694227218628
0.2760346722011964,6.428403854370117
0.26846538884141125,6.431140661239624
0.26895372970333287,6.433851003646851
0.28238310340617745,6.436551570892334
0.2794530582346477,6.439275741577148
0.2655353436698815,6.4419872760772705
0.2784763765108045,6.444690465927124
0.27041875228909773,6.447396993637085
0.27090709315101935,6.450138330459595
0.28897570504211934,6.452848196029663
0.2853131485777072,6.4555463790893555
0.27334879746062746,6.458251953125
0.28213893297521664,6.460995197296143
0.27554633133927475,6.463706016540527
0.27310462702966665,6.466410160064697
0.28726651202539366,6.469112873077393
0.2836039555609815,6.471851825714111
0.2721279453058234,6.474559545516968
0.27823220607984367,6.477264165878296
0.27530216090831394,6.480003833770752
0.2718837748748626,6.482706069946289
0.28506897814674637,6.485410690307617
0.2836039555609815,6.48841118812561
0.27359296789158827,6.491180658340454
0.27823220607984367,6.493885278701782
0.27554633133927475,6.496594190597534
0.2716396044439018,6.499322175979614
0.28482480771578556,6.50203275680542
0.2831156146990599,6.504736661911011
0.27579050177023556,6.507446527481079
0.27579050177023556,6.510183811187744
0.276523013063118,6.512888669967651
0.27115126358198016,6.515591382980347
0.2811622512513734,6.518301248550415
0.281650592113295,6.521036624908447
0.27579050177023556,6.5237462520599365
0.27041875228909773,6.526451110839844
0.27505799047735313,6.529155731201172
0.2691979001342937,6.531891107559204
0.2770113539250396,6.534598112106323
0.28213893297521664,6.537302732467651
0.2770113539250396,6.540039777755737
0.27041875228909773,6.542750597000122
0.28042973995849096,6.545461416244507
0.27505799047735313,6.548164129257202
0.2772555243560004,6.55090594291687
0.28677817116347204,6.553609848022461
0.2833597851300207,6.55630898475647
0.2696862409962153,6.559004068374634
0.28189476254425583,6.561748504638672
0.27359296789158827,6.564455986022949
0.2772555243560004,6.5671656131744385
0.2879990233182761,6.569906711578369
0.28677817116347204,6.5726141929626465
0.2723721157367842,6.575319528579712
0.28433646685386393,6.578057289123535
0.27530216090831394,6.580807209014893
0.27530216090831394,6.583515644073486
0.2909290684898058,6.5862202644348145
0.28726651202539366,6.588923931121826
0.27359296789158827,6.59165358543396
0.28213893297521664,6.594357252120972
0.27530216090831394,6.597064018249512
0.2745696496154315,6.599804401397705
0.28751068245635447,6.602511405944824
0.285557319008668,6.605209589004517
0.27554633133927475,6.6079137325286865
0.2814064216823342,6.610669851303101
0.2784763765108045,6.613376140594482
0.27530216090831394,6.616090536117554
0.28897570504211934,6.618801116943359
0.28726651202539366,6.621537446975708
0.27969722866560853,6.624251365661621
0.2811622512513734,6.626961946487427
0.28042973995849096,6.6297032833099365
0.2762788426321572,6.63241720199585
0.28702234159443285,6.635124206542969
0.2853131485777072,6.637828350067139
0.281650592113295,6.640561580657959
0.27749969478696124,6.6432647705078125
0.2814064216823342,6.64596152305603
0.27530216090831394,6.648669481277466
0.28433646685386393,6.651403188705444
0.2882431937492369,6.654112339019775
0.2836039555609815,6.656810283660889
0.2743254791844707,6.659544944763184
0.2831156146990599,6.662250518798828
0.2770113539250396,6.66496467590332
0.2811622512513734,6.667674541473389
0.28897570504211934,6.670427083969116
0.28653400073251123,6.67313551902771
0.27334879746062746,6.675843238830566
0.28506897814674637,6.678546905517578
0.2772555243560004,6.681301832199097
0.2789647173727261,6.684009313583374
0.29117323892076663,6.686720609664917
0.28726651202539366,6.689462423324585
0.27115126358198016,6.692173719406128
0.28433646685386393,6.694883823394775
0.27554633133927475,6.697590112686157
0.27530216090831394,6.700329542160034
0.2909290684898058,6.703043222427368
0.28726651202539366,6.70575213432312
0.2743254791844707,6.7084596157073975
0.28506897814674637,6.711200475692749
0.27823220607984367,6.713916063308716
0.27749969478696124,6.716619253158569
0.29385911366133555,6.719352960586548
0.28921987547308015,6.722057342529297
0.2772555243560004,6.724771499633789
0.28287144426809907,6.727471351623535
0.2784763765108045,6.730232238769531
0.27554633133927475,6.732943058013916
0.28897570504211934,6.735662221908569
0.28653400073251123,6.738370895385742
0.2792088878036869,6.7411181926727295
0.2831156146990599,6.743820667266846
0.2811622512513734,6.746531963348389
0.27749969478696124,6.749264240264893
0.2887315346111585,6.751978158950806
0.28726651202539366,6.754683494567871
0.2809180808204126,6.757388591766357
0.27823220607984367,6.760128736495972
0.27969722866560853,6.7628443241119385
0.2770113539250396,6.765555381774902
0.28506897814674637,6.76826286315918
0.2860456598705896,6.771000623703003
0.2836039555609815,6.7737040519714355
0.276523013063118,6.776409864425659
0.28433646685386393,6.779115438461304
0.2789647173727261,6.781942844390869
0.2840922964229031,6.784650564193726
0.28921987547308015,6.787350177764893
0.28506897814674637,6.790086984634399
0.2743254791844707,6.792790174484253
0.2833597851300207,6.795492649078369
0.27530216090831394,6.798193693161011
0.2789647173727261,6.8009302616119385
0.2899523867659626,6.803633689880371
0.28751068245635447,6.8063414096832275
0.27334879746062746,6.809051513671875
0.28726651202539366,6.811789035797119
0.2794530582346477,6.814488649368286
0.2792088878036869,6.817201137542725
0.2950799658161396,6.819945573806763
0.28897570504211934,6.82265830039978
0.2738371383225491,6.8253583908081055
0.28506897814674637,6.828069448471069
0.27530216090831394,6.830807685852051
0.2745696496154315,6.8335120677948
0.290684898058845,6.836216926574707
0.28726651202539366,6.8389246463775635
0.27359296789158827,6.841660022735596
0.2836039555609815,6.844367504119873
0.27749969478696124,6.8470659255981445
0.27505799047735313,6.849829912185669
0.28751068245635447,6.852536678314209
0.28506897814674637,6.855244398117065
0.27505799047735313,6.857951641082764
0.2792088878036869,6.86076021194458
0.2745696496154315,6.863478899002075
0.27041875228909773,6.866190433502197
0.28458063728482474,6.8688952922821045
0.28262727383713826,6.871640205383301
0.2743254791844707,6.874342679977417
0.276523013063118,6.877051830291748
0.2772555243560004,6.87978982925415
0.272616286167745,6.882498264312744
0.2840922964229031,6.885207653045654
0.2836039555609815,6.887914419174194
0.27749969478696124,6.890718936920166
0.272616286167745,6.893424987792969
0.276523013063118,6.896132707595825
0.27066292272005854,6.8988378047943115
0.27823220607984367,6.901584625244141
0.28042973995849096,6.904296398162842
0.27774386521792205,6.907005548477173
0.2696862409962153,6.9097442626953125
0.27823220607984367,6.91245436668396
0.2721279453058234,6.9151647090911865
0.27749969478696124,6.917871713638306
0.2831156146990599,6.92061448097229
0.2811622512513734,6.923365592956543
0.2694420705652545,6.926079750061035
0.2811622512513734,6.92879843711853
0.27359296789158827,6.931549787521362
0.276523013063118,6.934263467788696
0.28921987547308015,6.936967134475708
0.2860456598705896,6.93972110748291
0.2716396044439018,6.942430019378662
0.28506897814674637,6.945133447647095
0.2770113539250396,6.947848320007324
0.2770113539250396,6.9505884647369385
0.29141740935172744,6.953301429748535
0.28751068245635447,6.956008672714233
0.27286045659870584,6.958724021911621
0.28433646685386393,6.961463928222656
0.2760346722011964,6.964184522628784
0.2743254791844707,6.966900587081909
0.2899523867659626,6.969681024551392
0.28751068245635447,6.972395658493042
0.27554633133927475,6.975099086761475
0.28458063728482474,6.977810859680176
0.2792088878036869,6.980560541152954
0.2760346722011964,6.983277082443237
0.2899523867659626,6.986277341842651
0.2884873641801977,6.989003419876099
0.27530216090831394,6.99175500869751
0.2840922964229031,6.9944727420806885
0.2772555243560004,6.997190237045288
0.27530216090831394,6.999935150146484
0.2904407276278842,7.002655506134033
0.28897570504211934,7.005438566207886
0.27823220607984367,7.008150815963745
0.28433646685386393,7.010887384414673
0.28018556952753015,7.013603448867798
0.27749969478696124,7.016310691833496
0.29117323892076663,7.019021272659302
0.28921987547308015,7.021760940551758
0.2814064216823342,7.02446985244751
0.27969722866560853,7.027175426483154
0.27554633133927475,7.029925346374512
0.2652911732389207,7.032636404037476
0.2716396044439018,7.035351276397705
0.27041875228909773,7.038055181503296
0.26870955927237206,7.040808439254761
0.2672445366866072,7.043521881103516
0.2694420705652545,7.046237230300903
0.2652911732389207,7.048951625823975
0.27359296789158827,7.051693916320801
0.276523013063118,7.0544044971466064
0.2738371383225491,7.05711030960083
0.2652911732389207,7.059858560562134
0.27115126358198016,7.0625715255737305
0.26651202539372476,7.065284729003906
0.27310462702966665,7.068007469177246
0.28042973995849096,7.070766448974609
0.276523013063118,7.07348108291626
0.26577951410084233,7.07618260383606
0.27334879746062746,7.0788960456848145
0.2694420705652545,7.081642150878906
0.2652911732389207,7.084355592727661
0.2784763765108045,7.087063789367676
0.27041875228909773,7.089837551116943
0.2560126968624099,7.092544078826904
0.2809180808204126,7.095267057418823
0.27359296789158827,7.0979695320129395
0.2694420705652545,7.100713014602661
0.2814064216823342,7.10341739654541
0.2809180808204126,7.106138706207275
0.2679770479794896,7.108848333358765
0.2831156146990599,7.111593008041382
0.27530216090831394,7.114308595657349
0.2738371383225491,7.117023229598999
0.28946404590404096,7.119764566421509
0.2862898303015504,7.122472763061523
0.27286045659870584,7.125186920166016
0.2784763765108045,7.1278932094573975
0.27041875228909773,7.130634546279907
0.26846538884141125,7.133344411849976
0.28726651202539366,7.136049270629883
0.2879990233182761,7.138765573501587
0.2794530582346477,7.141515016555786
0.285557319008668,7.144228219985962
0.2833597851300207,7.146933078765869
0.28751068245635447,7.1496875286102295
0.31266023684531796,7.15239691734314
0.3136369185691612,7.155108690261841
0.31266023684531796,7.157811403274536
0.3133927481382004,7.160556793212891
0.3180319863264558,7.163268566131592
0.31046270296667067,7.165998935699463
0.32169454279086795,7.168721914291382
0.31925283848125985,7.171482801437378
0.3136369185691612,7.1741862297058105
0.3094860212428274,7.176905632019043
0.3114393846905139,7.179657459259033
0.30069588572823824,7.182371139526367
0.30313759003784635,7.185086965560913
0.3043584421926504,7.187803745269775
0.2999633744353558,7.190546274185181
0.2909290684898058,7.193256855010986
0.2862898303015504,7.195964336395264
0.2770113539250396,7.198686599731445
0.27359296789158827,7.201429605484009
0.276523013063118,7.204148769378662
0.272616286167745,7.206862211227417
0.26382615065315584,7.209625244140625
0.2784763765108045,7.2123401165008545
0.2691979001342937,7.2150492668151855
0.27115126358198016,7.217760324478149
0.2809180808204126,7.22050142288208
0.28213893297521664,7.223212718963623
0.2696862409962153,7.225919961929321
0.2811622512513734,7.228639125823975
0.2721279453058234,7.231382369995117
0.2716396044439018,7.2340991497039795
0.2840922964229031,7.236809968948364
0.28287144426809907,7.239550828933716
0.2694420705652545,7.242263078689575
0.28213893297521664,7.244971036911011
0.2762788426321572,7.2476806640625
0.285557319008668,7.250423192977905
0.29166157978268825,7.253145456314087
0.28897570504211934,7.255854845046997
0.27530216090831394,7.258561849594116
0.2853131485777072,7.26130223274231
0.27969722866560853,7.264009714126587
0.28433646685386393,7.266730785369873
0.3046026126236112,7.2695229053497314
0.3038701013307288,7.272242546081543
0.2948357953851788,7.274965763092041
0.3046026126236112,7.277680158615112
0.30557929434745446,7.280425548553467
0.30264924917592473,7.283133029937744
0.3155902820168477,7.285841941833496
0.3109510438285923,7.288553476333618
0.3094860212428274,7.291295289993286
0.308753509949945,7.294013261795044
0.3070443169332193,7.296722650527954
0.29849835184959095,7.299466609954834
0.3116835551214747,7.302185773849487
0.3116835551214747,7.304901599884033
0.29849835184959095,7.3076136112213135
0.30264924917592473,7.310357332229614
0.31046270296667067,7.3130834102630615
0.3065559760712977,7.315795660018921
0.3133927481382004,7.318512678146362
0.3107068733976315,7.321251153945923
0.3016725674520815,7.3239617347717285
0.299719204004395,7.326674461364746
0.308753509949945,7.329432725906372
0.3016725674520815,7.332151651382446
0.31241606641435715,7.334869384765625
0.3209620314979855,7.337576627731323
0.3273104627029666,7.340319395065308
0.31461360029300445,7.34302544593811
0.32438041753143687,7.345730781555176
0.31461360029300445,7.348439693450928
0.3153461115858869,7.351189851760864
0.33121718959833957,7.353893756866455
0.3246245879623977,7.3565990924835205
0.3153461115858869,7.359341621398926
0.32340373580759363,7.362056016921997
0.3111952142595531,7.364769458770752
0.30509095348553283,7.367498159408569
0.32120620192894633,7.370456695556641
0.3160786228787693,7.373175382614136
0.31510194115492607,7.375878572463989
0.33512391649371254,7.378587245941162
0.32584544011720173,7.381334066390991
0.32804297399584903,7.3840491771698
0.34659992674887063,7.386756658554077
0.33805396166524226,7.389497518539429
0.3226712245147112,7.392197847366333
0.3439140520083017,7.394907236099243
0.33292638261506524,7.397615432739258
0.32340373580759363,7.40036153793335
0.3302405078744963,7.403070449829102
0.3207178610670247,7.405778646469116
0.3085093395189842,7.4084978103637695
0.3185203271883774,7.4112372398376465
0.31729947503357336,7.41394829750061
0.3094860212428274,7.416661500930786
0.3224270540837504,7.419400453567505
0.3185203271883774,7.422107934951782
0.3185203271883774,7.424810409545898
0.32413624710047606,7.427523136138916
0.33976315468196794,7.430263042449951
0.3297521670125747,7.432967901229858
0.3361005982175558,7.435671091079712
0.33292638261506524,7.4383814334869385
0.3273104627029666,7.441120862960815
0.3204736906360639,7.443825960159302
0.3089976803809058,7.446527004241943
0.30264924917592473,7.4492340087890625
0.30069588572823824,7.4519970417022705
0.29849835184959095,7.454716920852661
0.29410328409229636,7.457420349121094
0.2899523867659626,7.460162401199341
0.2853131485777072,7.462863445281982
0.27334879746062746,7.465574741363525
0.2677328775485288,7.468294858932495
0.2655353436698815,7.47105598449707
0.267488707117568,7.473770618438721
0.25698937858625315,7.476479530334473
0.26162861677450855,7.4791858196258545
0.25210596996703694,7.481921672821045
0.25430350384568423,7.484623670578003
0.2691979001342937,7.4876415729522705
0.272616286167745,7.490396499633789
0.2672445366866072,7.4931111335754395
0.2740813087535099,7.49581503868103
0.2723721157367842,7.498527765274048
0.26675619582468557,7.501274347305298
0.2718837748748626,7.5040576457977295
0.2743254791844707,7.506957054138184
0.26602368453180314,7.51018762588501
0.27579050177023556,7.512990713119507
0.2696862409962153,7.515759229660034
0.28189476254425583,7.518928527832031
0.2858014894396288,7.5221569538116455
0.2794530582346477,7.525045871734619
0.28506897814674637,7.527823209762573
0.28042973995849096,7.530891418457031
0.29166157978268825,7.53394079208374
0.30533512391649364,7.536911725997925
0.3163227933097301,7.5401012897491455
0.30826516908802337,7.543251037597656
0.31729947503357336,7.54646897315979
0.30826516908802337,7.549691200256348
0.3246245879623977,7.552652597427368
0.3224270540837504,7.555753946304321
0.3107068733976315,7.55885124206543
0.3209620314979855,7.56207013130188
0.3107068733976315,7.564946413040161
0.31217189598339634,7.568143606185913
0.31925283848125985,7.571370601654053
0.3155902820168477,7.574228048324585
0.3109510438285923,7.5772974491119385
0.3107068733976315,7.58025860786438
0.3092418508118666,7.583235025405884
0.32633378097912336,7.586299180984497
0.32389207666951525,7.589089870452881
0.3163227933097301,7.591942310333252
0.3251129288243193,7.595218181610107
0.3175436454645342,7.598302602767944
0.3361005982175558,7.601160049438477
0.3478207789036747,7.60392689704895
0.3475766084727139,7.606928110122681
0.3365889390794774,7.610128402709961
0.34025149554388956,7.613051414489746
0.33756562080332064,7.616133451461792
0.3436698815773409,7.619432687759399
0.33976315468196794,7.62254524230957
0.32608961054816255,7.625652551651001
0.3299963374435355,7.628777265548706
0.3180319863264558,7.63195013999939
0.3207178610670247,7.635026454925537
0.3253570992552801,7.638108491897583
0.317787815895495,7.641149997711182
0.31485777072396526,7.644274473190308
0.308753509949945,7.64738392829895
0.308753509949945,7.650331974029541
0.3336588939079477,7.653344392776489
0.32608961054816255,7.656213998794556
0.30777682822610175,7.65935492515564
0.3346355756317909,7.662246942520142
0.32608961054816255,7.665030241012573
0.33048467830545714,7.668233633041382
0.34196068856061523,7.671410799026489
0.3297521670125747,7.674278974533081
0.32438041753143687,7.677031517028809
0.32633378097912336,7.680028200149536
0.3202295202051031,7.6830689907073975
0.3382981320962031,7.686139822006226
0.3382981320962031,7.689181566238403
0.32657795141008417,7.692409992218018
0.3299963374435355,7.695563793182373
0.3221828836527896,7.698696613311768
0.32633378097912336,7.701817989349365
0.32901965571969227,7.7049455642700195
0.3224270540837504,7.708016872406006
0.32193871322182877,7.711216926574707
0.31681113417165174,7.714104890823364
0.3204736906360639,7.7172911167144775
0.33780979123428145,7.720473527908325
0.3348797460627517,7.723320722579956
0.32413624710047606,7.726382732391357
0.3361005982175558,7.729316473007202
0.32828714442680984,7.732300519943237
0.3429373702844585,7.735376596450806
0.34415822243926253,7.738170385360718
0.346111585886949,7.741079568862915
0.346111585886949,7.744285821914673
0.34464656330118415,7.747353553771973
0.3578317665730679,7.750220060348511
0.37199365156879494,7.753013849258423
0.37223782199975575,7.75606632232666
0.359052618727872,7.759197473526001
0.37736540104993277,7.762282848358154
0.3688194359663044,7.765377759933472
0.3661335612257355,7.768474340438843
0.3690636063972652,7.771644592285156
0.35856427786595035,7.774767160415649
0.35343669881577333,7.777867794036865
0.3439140520083017,7.7810447216033936
0.32413624710047606,7.784131765365601
0.33585642778659497,7.787201166152954
0.3339030643389085,7.790318965911865
0.3204736906360639,7.7933807373046875
0.3199853497741423,7.796442985534668
0.3163227933097301,7.799450397491455
0.32389207666951525,7.80237078666687
0.3221828836527896,7.805180788040161
0.3202295202051031,7.8079304695129395
0.32608961054816255,7.8107500076293945
0.3248687583933585,7.81346869468689
0.3297521670125747,7.8161773681640625
0.34196068856061523,7.818882703781128
0.34415822243926253,7.8216400146484375
0.3436698815773409,7.824359655380249
0.346111585886949,7.827064037322998
0.3480649493346355,7.829808235168457
0.3483091197655963,7.8325111865997314
0.3573434257111463,7.8352179527282715
0.3578317665730679,7.837924957275391
0.34733243804175307,7.840668678283691
0.3390306433890855,7.843371868133545
0.35856427786595035,7.846085071563721
0.35148333536808685,7.84879469871521
0.355145891832499,7.851605653762817
0.3663777316566963,7.854308843612671
0.36320351605420576,7.857026100158691
0.3553900622634598,7.8597729206085205
0.3690636063972652,7.862473726272583
0.3624710047613233,7.865175247192383
0.369307776828226,7.86788010597229
0.37663288975705034,7.870627164840698
0.37199365156879494,7.873343467712402
0.3546575509705774,7.876048564910889
0.35880844829691116,7.878756523132324
0.34733243804175307,7.881577968597412
0.33780979123428145,7.884284973144531
0.34659992674887063,7.886990547180176
0.3456232450250274,7.88975191116333
0.3299963374435355,7.892458200454712
0.3407398364058112,7.895163536071777
0.33121718959833957,7.8978636264801025
0.33585642778659497,7.900611162185669
0.3575875961421071,7.9033203125
0.35197167623000847,7.906018972396851
0.34000732511292875,7.908721685409546
0.35343669881577333,7.911466360092163
0.34464656330118415,7.914170265197754
0.3485532901965571,7.916877746582031
0.36344768648516657,7.919626712799072
0.35807593700402873,7.922333002090454
0.35392503967769495,7.925037145614624
0.36051764131363684,7.927742958068848
0.3546575509705774,7.930511474609375
0.34928580148943955,7.933218479156494
0.35368086924673414,7.935922145843506
0.3475766084727139,7.938631534576416
0.3363447686485166,7.941373586654663
0.33512391649371254,7.944076776504517
0.3363447686485166,7.946789503097534
0.3407398364058112,7.949536323547363
0.3429373702844585,7.952244997024536
0.340984006836772,7.9549500942230225
0.3414723476986936,7.957654237747192
0.33561225735563416,7.960394620895386
0.34025149554388956,7.9631006717681885
0.32901965571969227,7.965815782546997
0.337077279941399,7.968525648117065
0.3414723476986936,7.971278429031372
0.33292638261506524,7.973989725112915
0.32657795141008417,7.976694107055664
0.33780979123428145,7.9794394969940186
0.32438041753143687,7.982142448425293
0.3163227933097301,7.984848499298096
0.32633378097912336,7.987855434417725
0.3182761567574166,7.9905970096588135
0.3068001465022585,7.993345260620117
0.31241606641435715,7.996061325073242
0.3038701013307288,7.99877142906189
0.3063118056403369,8.001510620117188
0.3136369185691612,8.004207611083984
0.31729947503357336,8.006908893585205
0.30509095348553283,8.009655714035034
0.31266023684531796,8.012354850769043
0.30362593089976797,8.015064716339111
0.3038701013307288,8.017770290374756
0.3207178610670247,8.020508766174316
0.3107068733976315,8.02321743965149
0.2977658405567085,8.025924921035767
0.3180319863264558,8.028631448745728
0.3085093395189842,8.03137755393982
0.3019167378830423,8.03408169746399
0.3089976803809058,8.036789655685425
0.3038701013307288,8.039522409439087
0.28921987547308015,8.042223453521729
0.29849835184959095,8.044932126998901
0.29190575021364906,8.047638177871704
0.2926382615065315,8.05039930343628
0.3019167378830423,8.053107738494873
0.2992308631424734,8.05581283569336
0.28751068245635447,8.058527946472168
0.2926382615065315,8.061267614364624
0.28751068245635447,8.063977718353271
0.28702234159443285,8.066683769226074
0.3038701013307288,8.069421291351318
0.3019167378830423,8.072139263153076
0.29874252228055176,8.07484245300293
0.30069588572823824,8.077547550201416
0.29898669271151257,8.08029317855835
0.2972774996947869,8.082998752593994
0.30777682822610175,8.085706233978271
0.3063118056403369,8.088415145874023
0.3002075448663166,8.091156721115112
0.29581247710902203,8.093863487243652
0.2887315346111585,8.096569061279297
0.27823220607984367,8.099291801452637
0.26895372970333287,8.101999521255493
0.26602368453180314,8.104704141616821
0.26577951410084233,8.107407331466675
0.25747771944817477,8.110145330429077
0.26895372970333287,8.112848043441772
0.2608961054816261,8.115554332733154
0.26358198022219503,8.118265867233276
0.2718837748748626,8.120998620986938
0.2679770479794896,8.12369704246521
0.2557685264314491,8.126398801803589
0.2608961054816261,8.12910532951355
0.25430350384568423,8.13183331489563
0.2535709925528018,8.1345374584198
0.2648028323769991,8.137247085571289
0.26358198022219503,8.139984130859375
0.2491759247955072,8.142701148986816
0.26382615065315584,8.145404815673828
0.25698937858625315,8.148107528686523
0.2628494689293126,8.1508469581604
0.28482480771578556,8.15355634689331
0.2858014894396288,8.156264305114746
0.28238310340617745,8.158976316452026
0.2923940910755707,8.161715269088745
0.28506897814674637,8.164416313171387
0.29605664753998284,8.16712760925293
0.3094860212428274,8.169884204864502
0.3107068733976315,8.172593116760254
0.3065559760712977,8.175306797027588
0.30777682822610175,8.178011655807495
0.30045171529727743,8.180755615234375
0.2899523867659626,8.183466672897339
0.30264924917592473,8.186173439025879
0.3002075448663166,8.188880443572998
0.29654498840190446,8.191618204116821
0.29898669271151257,8.194323539733887
0.29605664753998284,8.197030544281006
0.28946404590404096,8.199765682220459
0.30264924917592473,8.202473163604736
0.3019167378830423,8.2051842212677
0.29849835184959095,8.207890272140503
0.29654498840190446,8.210632562637329
0.29874252228055176,8.213339567184448
0.294591624954218,8.21604585647583
0.30777682822610175,8.218751192092896
0.31241606641435715,8.221501350402832
0.3141252594310828,8.22420597076416
0.30826516908802337,8.226916074752808
0.31192772555243553,8.229658126831055
0.3065559760712977,8.232372522354126
0.30826516908802337,8.235080003738403
0.31729947503357336,8.237788438796997
0.30777682822610175,8.24052882194519
0.30045171529727743,8.243234395980835
0.3207178610670247,8.245945692062378
0.31461360029300445,8.248649597167969
0.31729947503357336,8.251385688781738
0.3361005982175558,8.254091739654541
0.3343914052008301,8.256802797317505
0.32657795141008417,8.259544134140015
0.3485532901965571,8.262250423431396
0.3382981320962031,8.264965772628784
0.3339030643389085,8.267678499221802
0.3478207789036747,8.270417213439941
0.34220485899157604,8.27313494682312
0.33048467830545714,8.27584195137024
0.34415822243926253,8.27854037284851
0.3336588939079477,8.281278133392334
0.32901965571969227,8.28398323059082
0.3439140520083017,8.286684513092041
0.3368331095104382,8.289440393447876
0.3297521670125747,8.292149543762207
0.3390306433890855,8.294861316680908
0.34025149554388956,8.297572135925293
0.3341472347698693,8.300315618515015
0.3429373702844585,8.303025245666504
0.3368331095104382,8.305737972259521
0.32389207666951525,8.308446645736694
0.3341472347698693,8.31118631362915
0.3368331095104382,8.31389594078064
0.32657795141008417,8.316599369049072
0.3343914052008301,8.319345712661743
0.33097301916737876,8.32205581665039
0.32389207666951525,8.324767351150513
0.3202295202051031,8.327471733093262
0.3155902820168477,8.330206155776978
0.30289341960688554,8.33290958404541
0.3065559760712977,8.335619688034058
0.30557929434745446,8.338351488113403
0.3068001465022585,8.341106176376343
0.3063118056403369,8.343814611434937
0.31266023684531796,8.346521854400635
0.30557929434745446,8.349231481552124
0.3089976803809058,8.351975917816162
0.31241606641435715,8.354687690734863
0.30973019167378824,8.35740065574646
0.29825418141863014,8.360139846801758
0.30069588572823824,8.362852811813354
0.2899523867659626,8.365559339523315
0.2887315346111585,8.368272304534912
0.2953241362471004,8.371006727218628
0.2933707727994139,8.373731136322021
0.2811622512513734,8.376449584960938
0.2928824319374923,8.379153966903687
0.28506897814674637,8.381898164749146
0.2909290684898058,8.384606838226318
0.3038701013307288,8.387318849563599
0.3019167378830423,8.39013409614563
0.28897570504211934,8.392844676971436
0.299719204004395,8.395554542541504
0.29166157978268825,8.398261785507202
0.2923940910755707,8.401000499725342
0.3065559760712977,8.403712272644043
0.3014283970211207,8.40641188621521
0.2921499206446099,8.409116268157959
0.30557929434745446,8.41187596321106
0.2970333292638261,8.414578199386597
0.2977658405567085,8.417282581329346
0.31192772555243553,8.420022964477539
0.30997436210474905,8.42273235321045
0.2980100109876693,8.425431728363037
0.3063118056403369,8.42813491821289
0.30289341960688554,8.430868148803711
0.29849835184959095,8.433569192886353
0.31266023684531796,8.436270236968994
0.3109510438285923,8.438979148864746
0.30557929434745446,8.441709280014038
0.304846783054572,8.444416284561157
0.3016725674520815,8.447120428085327
0.2980100109876693,8.44986081123352
0.30777682822610175,8.452568054199219
0.30582346477841527,8.455278873443604
0.30289341960688554,8.457983016967773
0.2977658405567085,8.460721969604492
0.2977658405567085,8.463431119918823
0.28946404590404096,8.466134786605835
0.2909290684898058,8.46884536743164
0.29361494323037474,8.471582174301147
0.29190575021364906,8.474299907684326
0.285557319008668,8.477005958557129
0.29385911366133555,8.4797523021698
0.28677817116347204,8.48246145248413
0.2921499206446099,8.48516845703125
0.29874252228055176,8.488181114196777
0.2921499206446099,8.490931749343872
0.28287144426809907,8.493640661239624
0.2884873641801977,8.496347427368164
0.2809180808204126,8.499053478240967
0.28042973995849096,8.501795291900635
0.2882431937492369,8.504510164260864
0.285557319008668,8.507213830947876
0.2770113539250396,8.509947776794434
0.28946404590404096,8.512653589248657
0.2814064216823342,8.51535177230835
0.28702234159443285,8.518059730529785
0.30362593089976797,8.520800828933716
0.2999633744353558,8.523504734039307
0.28458063728482474,8.526207208633423
0.30264924917592473,8.528911352157593
0.2933707727994139,8.53166937828064
0.2931266023684531,8.534374475479126
0.30826516908802337,8.537086009979248
0.30509095348553283,8.53981900215149
