semg,time
0.2530826516908802,0.0025856494903564453
0.26138444634354774,0.005257368087768555
0.26577951410084233,0.0077304840087890625
0.25479184470760585,0.010181665420532227
0.25894274203393963,0.012538433074951172
0.25967525332682206,0.014872074127197266
0.2555243560004883,0.017270565032958984
0.2599194237577829,0.019608259201049805
0.26602368453180314,0.022049665451049805
0.2694420705652545,0.02442765235900879
0.2586985716029788,0.0267488956451416
0.26162861677450855,0.029087305068969727
0.2608961054816261,0.03138852119445801
0.25747771944817477,0.03372454643249512
0.25967525332682206,0.03596234321594238
0.26846538884141125,0.038518667221069336
0.2723721157367842,0.040970802307128906
0.26211695763643017,0.04309201240539551
0.26138444634354774,0.045281410217285156
0.2648028323769991,0.04775834083557129
0.2599194237577829,0.05008554458618164
0.26162861677450855,0.05217742919921875
0.2723721157367842,0.05443525314331055
0.2716396044439018,0.05679726600646973
0.26846538884141125,0.05904531478881836
0.2599194237577829,0.06150341033935547
0.267488707117568,0.06391644477844238
0.2626052984983518,0.06630182266235352
0.26382615065315584,0.0686953067779541
0.27505799047735313,0.07107329368591309
0.27334879746062746,0.07350659370422363
0.27115126358198016,0.07583999633789062
0.26211695763643017,0.07817983627319336
0.2694420705652545,0.08050203323364258
0.26382615065315584,0.08287692070007324
0.2655353436698815,0.08527541160583496
0.276523013063118,0.0881662368774414
0.27554633133927475,0.0912938117980957
0.26162861677450855,0.09416604042053223
0.2677328775485288,0.09702038764953613
0.2586985716029788,0.09980344772338867
0.2608961054816261,0.10264348983764648
0.2716396044439018,0.10542941093444824
0.27066292272005854,0.10815858840942383
0.25674520815529234,0.110931396484375
0.2648028323769991,0.11372089385986328
0.2560126968624099,0.11645722389221191
0.2577218898791356,0.11921429634094238
0.2696862409962153,0.12201571464538574
0.26846538884141125,0.12474942207336426
0.2540593334147234,0.12752294540405273
0.2626052984983518,0.13029193878173828
0.2530826516908802,0.13302302360534668
0.2538151629837626,0.13579916954040527
0.26577951410084233,0.1385641098022461
0.2645586619460383,0.14133834838867188
0.25039677695031126,0.14410781860351562
0.25943108289586125,0.14684772491455078
0.2513734586741545,0.14957928657531738
0.2511292882431937,0.15238332748413086
0.26358198022219503,0.15512561798095703
0.262361128067391,0.15785622596740723
0.2491759247955072,0.16068506240844727
0.25674520815529234,0.16342520713806152
0.2489317543645464,0.16617059707641602
0.2486875839335856,0.16894769668579102
0.2599194237577829,0.17174291610717773
0.25967525332682206,0.17447662353515625
0.24771090220974235,0.17725586891174316
0.25479184470760585,0.1800248622894287
0.24844341350262478,0.18276548385620117
0.24746673177878153,0.1855454444885254
0.26162861677450855,0.18828964233398438
0.2582102307410572,0.19105744361877441
0.24624587962397748,0.19383549690246582
0.25235014039799775,0.19657421112060547
0.2469783909168599,0.19935274124145508
0.24624587962397748,0.20212769508361816
0.2577218898791356,0.20487117767333984
0.2560126968624099,0.20764493942260742
0.24551336833109505,0.2104203701019287
0.2506409473812721,0.21315503120422363
0.24575753876205586,0.21595168113708496
0.24502502746917343,0.2186899185180664
0.25698937858625315,0.22146105766296387
0.2560126968624099,0.22423768043518066
0.2469783909168599,0.22697758674621582
0.2511292882431937,0.2297070026397705
0.2469783909168599,0.23251748085021973
0.24575753876205586,0.2352588176727295
0.2577218898791356,0.23798847198486328
0.2555243560004883,0.24081039428710938
0.24795507264070316,0.24355244636535645
0.2508851178122329,0.24628615379333496
0.24722256134782072,0.24906587600708008
0.24502502746917343,0.2518303394317627
0.25674520815529234,0.2545652389526367
0.25503601513856666,0.2573411464691162
0.24624587962397748,0.2601141929626465
0.24844341350262478,0.26285243034362793
0.24600170919301667,0.2656290531158447
0.24356000488340857,0.26836395263671875
0.2555243560004883,0.27114200592041016
0.2538151629837626,0.27390551567077637
0.2467342204858991,0.2766447067260742
0.24795507264070316,0.2794456481933594
0.24600170919301667,0.28224849700927734
0.2423391527286045,0.2849886417388916
0.25430350384568423,0.287761926651001
0.2530826516908802,0.29055333137512207
0.24624587962397748,0.29329395294189453
0.24624587962397748,0.2960684299468994
0.24575753876205586,0.29880595207214355
0.24331583445244775,0.30158281326293945
0.25454767427664504,0.3043668270111084
0.25235014039799775,0.3071005344390869
0.2469783909168599,0.3099691867828369
0.24722256134782072,0.31275177001953125
0.24624587962397748,0.31549549102783203
0.24307166402148694,0.31822848320007324
0.25479184470760585,0.3210442066192627
0.2535709925528018,0.3237764835357666
0.2469783909168599,0.32651710510253906
0.24624587962397748,0.329296350479126
0.24575753876205586,0.33206605911254883
0.2423391527286045,0.3347933292388916
0.25259431082895856,0.33757567405700684
0.2508851178122329,0.3403489589691162
0.2469783909168599,0.3430812358856201
0.24478085703821262,0.34586334228515625
0.24600170919301667,0.3486056327819824
0.24307166402148694,0.35141944885253906
0.2530826516908802,0.3541576862335205
0.2518617995360761,0.3568868637084961
0.24722256134782072,0.35967063903808594
0.24331583445244775,0.36243486404418945
0.24502502746917343,0.36518025398254395
0.24136247100476127,0.36796045303344727
0.2506409473812721,0.3707311153411865
0.2511292882431937,0.3734626770019531
0.24746673177878153,0.3762369155883789
0.2420949822976437,0.37897443771362305
0.24624587962397748,0.38173961639404297
0.2423391527286045,0.3845086097717285
0.25015260651935045,0.3872413635253906
0.2518617995360761,0.3908109664916992
0.24038578928091803,0.394289493560791
0.24990843608838964,0.39704370498657227
0.2423391527286045,0.3998599052429199
0.24331583445244775,0.4028778076171875
0.25430350384568423,0.40561485290527344
0.25479184470760585,0.40839314460754395
0.24087413014283965,0.41120004653930664
0.24990843608838964,0.4142329692840576
0.24380417531436938,0.4170200824737549
0.24526919790013424,0.4197957515716553
0.25479184470760585,0.422527551651001
0.25235014039799775,0.42556166648864746
0.2398974484189964,0.42829251289367676
0.25015260651935045,0.43104982376098633
0.24380417531436938,0.43410778045654297
0.2489317543645464,0.4368557929992676
0.25430350384568423,0.4396324157714844
0.2530826516908802,0.4423975944519043
0.2420949822976437,0.44541311264038086
0.24966426565742883,0.4481985569000244
0.24600170919301667,0.4509727954864502
0.25210596996703694,0.4537010192871094
0.25479184470760585,0.45674610137939453
0.2513734586741545,0.45948266983032227
0.24551336833109505,0.46226072311401367
0.25210596996703694,0.465301513671875
0.24624587962397748,0.46804356575012207
0.2579660603100964,0.47081732749938965
0.2557685264314491,0.4736044406890869
0.2518617995360761,0.4766075611114502
0.2489317543645464,0.47939515113830566
0.24942009522646802,0.48216843605041504
0.24722256134782072,0.4849059581756592
0.2586985716029788,0.4879579544067383
0.25698937858625315,0.4907495975494385
0.24990843608838964,0.4934985637664795
0.25015260651935045,0.49654150009155273
0.24795507264070316,0.499295711517334
0.24722256134782072,0.5020701885223389
0.25894274203393963,0.5048420429229736
0.25894274203393963,0.5078554153442383
0.2491759247955072,0.5106353759765625
0.25479184470760585,0.513418436050415
0.2508851178122329,0.5161662101745605
0.2506409473812721,0.5192124843597412
0.2626052984983518,0.5220210552215576
0.26138444634354774,0.5247628688812256
0.2491759247955072,0.5277824401855469
0.25674520815529234,0.5305931568145752
0.24819924307166397,0.5333406925201416
0.24844341350262478,0.5361528396606445
0.2582102307410572,0.5394692420959473
0.258454401172018,0.542250394821167
0.244292516176291,0.5450375080108643
0.2538151629837626,0.5477771759033203
0.24722256134782072,0.5508363246917725
0.2530826516908802,0.5536179542541504
0.2577218898791356,0.556361198425293
0.25674520815529234,0.5594055652618408
0.24624587962397748,0.5621793270111084
0.25039677695031126,0.5649192333221436
0.24624587962397748,0.5677001476287842
0.2540593334147234,0.5707399845123291
0.2577218898791356,0.5734848976135254
0.25235014039799775,0.5762598514556885
0.24624587962397748,0.5789988040924072
0.24990843608838964,0.5820615291595459
0.24624587962397748,0.5848453044891357
0.2557685264314491,0.5875794887542725
0.2557685264314491,0.5906212329864502
0.25015260651935045,0.593402624130249
0.2486875839335856,0.5961451530456543
0.24966426565742883,0.598884105682373
0.2469783909168599,0.6019701957702637
0.25967525332682206,0.6047186851501465
0.2608961054816261,0.6075000762939453
0.2516176291051153,0.6102695465087891
0.25454767427664504,0.6132771968841553
0.25039677695031126,0.6160604953765869
0.24844341350262478,0.6188066005706787
0.2604077646197045,0.6218559741973877
0.25967525332682206,0.6246464252471924
0.24795507264070316,0.6273965835571289
0.2538151629837626,0.63016676902771
0.24795507264070316,0.6332285404205322
0.2489317543645464,0.6359763145446777
0.26138444634354774,0.6387214660644531
0.26187278720546936,0.641533613204956
0.24795507264070316,0.6445555686950684
0.2577218898791356,0.6473398208618164
0.24990843608838964,0.6501548290252686
0.2506409473812721,0.6531691551208496
0.26162861677450855,0.655951976776123
0.2601635941887437,0.6586933135986328
0.24600170919301667,0.661473274230957
0.2555243560004883,0.664525032043457
0.24795507264070316,0.6672780513763428
0.2506409473812721,0.6700539588928223
0.25967525332682206,0.6728413105010986
0.2579660603100964,0.6758584976196289
0.24624587962397748,0.6786067485809326
0.2540593334147234,0.6814143657684326
0.24990843608838964,0.6844432353973389
0.25698937858625315,0.6872029304504395
0.26138444634354774,0.6899933815002441
0.2586985716029788,0.692730188369751
0.24966426565742883,0.695789098739624
0.25430350384568423,0.6985268592834473
0.25015260651935045,0.7012937068939209
0.2577218898791356,0.7040696144104004
0.2608961054816261,0.7070784568786621
0.2565010377243315,0.7098472118377686
0.2518617995360761,0.7126281261444092
0.25479184470760585,0.7156548500061035
0.2516176291051153,0.7184011936187744
0.2626052984983518,0.7212395668029785
0.26162861677450855,0.7239818572998047
0.2560126968624099,0.7269973754882812
0.25503601513856666,0.7298009395599365
0.2530826516908802,0.7325446605682373
0.24966426565742883,0.7353236675262451
0.2606519350506653,0.7383434772491455
0.2601635941887437,0.7411336898803711
0.2516176291051153,0.74391770362854
0.25479184470760585,0.7469401359558105
0.2508851178122329,0.7496812343597412
0.2511292882431937,0.7524871826171875
0.26358198022219503,0.7552239894866943
0.26187278720546936,0.7582380771636963
0.2491759247955072,0.7610485553741455
0.25674520815529234,0.763789176940918
0.25015260651935045,0.7665195465087891
0.2508851178122329,0.7695426940917969
0.2626052984983518,0.7723472118377686
0.2628494689293126,0.775083065032959
0.2489317543645464,0.7781336307525635
0.25747771944817477,0.7809154987335205
0.25015260651935045,0.7836880683898926
0.2518617995360761,0.7864265441894531
0.2633378097912342,0.789440393447876
0.26211695763643017,0.7922871112823486
0.24844341350262478,0.7950339317321777
0.25747771944817477,0.7977705001831055
0.2508851178122329,0.8008570671081543
0.2560126968624099,0.8035986423492432
0.2626052984983518,0.8063366413116455
0.26162861677450855,0.8093864917755127
0.2491759247955072,0.8121638298034668
0.25747771944817477,0.8149023056030273
0.2518617995360761,0.8176870346069336
0.25674520815529234,0.8207519054412842
0.262361128067391,0.8235292434692383
0.25943108289586125,0.8262627124786377
0.25039677695031126,0.8289966583251953
0.2560126968624099,0.8320765495300293
0.2508851178122329,0.8348214626312256
0.25918691246490044,0.8375611305236816
0.2606519350506653,0.8406476974487305
0.25479184470760585,0.8433966636657715
0.2511292882431937,0.8461315631866455
0.2530826516908802,0.8489084243774414
0.25039677695031126,0.8519501686096191
0.2626052984983518,0.854727029800415
0.2611402759125869,0.8575172424316406
0.25479184470760585,0.8602912425994873
0.2557685264314491,0.8633444309234619
0.2516176291051153,0.8660793304443359
0.24990843608838964,0.8688220977783203
0.26138444634354774,0.8718979358673096
0.2608961054816261,0.8746371269226074
0.2508851178122329,0.8773729801177979
0.2557685264314491,0.8802125453948975
0.2540593334147234,0.8833057880401611
0.2506409473812721,0.8860461711883545
0.26211695763643017,0.8888225555419922
0.26187278720546936,0.8916168212890625
0.24771090220974235,0.8946413993835449
0.25698937858625315,0.8974180221557617
0.24819924307166397,0.9002046585083008
0.2491759247955072,0.9032478332519531
0.2599194237577829,0.9059925079345703
0.2608961054816261,0.9087252616882324
0.2469783909168599,0.9115478992462158
0.2560126968624099,0.9145615100860596
0.24844341350262478,0.9173123836517334
0.2511292882431937,0.9201397895812988
0.2608961054816261,0.9228811264038086
0.25967525332682206,0.9259018898010254
0.24771090220974235,0.9286868572235107
0.2560126968624099,0.9314558506011963
0.24990843608838964,0.9344696998596191
0.25479184470760585,0.9372482299804688
0.25918691246490044,0.9401071071624756
0.25698937858625315,0.9428465366363525
0.2464900500549383,0.9459052085876465
0.2535709925528018,0.9486463069915771
0.24990843608838964,0.9514656066894531
0.25918691246490044,0.9542050361633301
0.26187278720546936,0.9572200775146484
0.25747771944817477,0.9600317478179932
0.25235014039799775,0.9627690315246582
0.2540593334147234,0.9657673835754395
0.24990843608838964,0.9685611724853516
0.2599194237577829,0.9713318347930908
0.2586985716029788,0.9740684032440186
0.2535709925528018,0.9771163463592529
0.25283848125991937,0.9798910617828369
0.2511292882431937,0.9826200008392334
0.24966426565742883,0.9854092597961426
0.26211695763643017,0.9884235858917236
0.26138444634354774,0.991248369216919
0.2518617995360761,0.9939875602722168
0.25454767427664504,0.9969933032989502
0.2508851178122329,0.9997999668121338
0.2511292882431937,1.0025405883789062
0.26187278720546936,1.0052731037139893
0.26162861677450855,1.0083117485046387
0.24990843608838964,1.0111198425292969
0.25674520815529234,1.0138587951660156
0.25039677695031126,1.0166354179382324
0.25015260651935045,1.0196733474731445
0.2626052984983518,1.0224671363830566
0.26211695763643017,1.0252442359924316
0.24819924307166397,1.0282588005065918
0.25698937858625315,1.031036376953125
0.2489317543645464,1.0338141918182373
0.2508851178122329,1.0393397808074951
0.2608961054816261,1.0423247814178467
0.2464900500549383,1.0450794696807861
0.25698937858625315,1.0478816032409668
0.24990843608838964,1.0506784915924072
0.2508851178122329,1.0534100532531738
0.2611402759125869,1.0561909675598145
0.2608961054816261,1.058919906616211
0.24624587962397748,1.0617010593414307
0.2557685264314491,1.064483404159546
0.24771090220974235,1.067230463027954
0.2491759247955072,1.0700018405914307
0.25967525332682206,1.0727808475494385
0.2599194237577829,1.0755162239074707
0.24575753876205586,1.078256368637085
0.25454767427664504,1.081071138381958
0.2469783909168599,1.0838136672973633
0.24819924307166397,1.086552619934082
0.2606519350506653,1.0893282890319824
0.25967525332682206,1.0921130180358887
0.24502502746917343,1.0948491096496582
0.2540593334147234,1.0976150035858154
0.24624587962397748,1.1004648208618164
0.24722256134782072,1.1032438278198242
0.25943108289586125,1.105980634689331
0.2599194237577829,1.1087071895599365
0.2469783909168599,1.111518144607544
0.2562568672933707,1.114253044128418
0.24819924307166397,1.1169939041137695
0.24966426565742883,1.1198246479034424
0.262361128067391,1.1225769519805908
0.2608961054816261,1.1253101825714111
0.2469783909168599,1.128091812133789
0.2557685264314491,1.1308960914611816
0.24746673177878153,1.1336398124694824
0.24771090220974235,1.136425256729126
0.2599194237577829,1.1391584873199463
0.25943108289586125,1.1419317722320557
0.24600170919301667,1.1447134017944336
0.2552801855695275,1.147458553314209
0.24771090220974235,1.1502327919006348
0.24819924307166397,1.153012752532959
0.2606519350506653,1.1557543277740479
0.25967525332682206,1.1584866046905518
0.24624587962397748,1.1612987518310547
0.2538151629837626,1.1640410423278809
0.2467342204858991,1.1667895317077637
0.24722256134782072,1.1695749759674072
0.26187278720546936,1.17234206199646
0.25894274203393963,1.1750779151916504
0.24624587962397748,1.1778547763824463
0.2530826516908802,1.180621862411499
0.24819924307166397,1.1834008693695068
0.24771090220974235,1.1861441135406494
0.25943108289586125,1.1888823509216309
0.2582102307410572,1.1916911602020264
0.24600170919301667,1.1944332122802734
0.2508851178122329,1.1971631050109863
0.24502502746917343,1.199974775314331
0.24600170919301667,1.2027151584625244
0.2582102307410572,1.2054471969604492
0.258454401172018,1.208223819732666
0.24795507264070316,1.2110064029693604
0.2538151629837626,1.214026927947998
0.2469783909168599,1.2169229984283447
0.24819924307166397,1.2197039127349854
0.25967525332682206,1.2224774360656738
0.2586985716029788,1.2252581119537354
0.24526919790013424,1.227992296218872
0.2538151629837626,1.2307589054107666
0.24624587962397748,1.2335433959960938
0.2467342204858991,1.2362794876098633
0.2586985716029788,1.2390141487121582
0.2586985716029788,1.241844892501831
0.24600170919301667,1.2445893287658691
0.2530826516908802,1.2473595142364502
0.24771090220974235,1.250159502029419
0.24722256134782072,1.252899169921875
0.25894274203393963,1.2556710243225098
0.2579660603100964,1.258404016494751
0.2464900500549383,1.2611782550811768
0.2530826516908802,1.2639579772949219
0.24722256134782072,1.266697645187378
0.24575753876205586,1.2694380283355713
0.2577218898791356,1.272334098815918
0.25674520815529234,1.2750730514526367
0.2445366866072518,1.2778081893920898
0.2508851178122329,1.2806129455566406
0.24575753876205586,1.2833552360534668
0.2445366866072518,1.286095380783081
0.2560126968624099,1.2888782024383545
0.2555243560004883,1.2916560173034668
0.24356000488340857,1.2943928241729736
0.24844341350262478,1.2971763610839844
0.2440483457453302,1.2999446392059326
0.24258332315956532,1.3026831150054932
0.25503601513856666,1.3054907321929932
0.25454767427664504,1.308218002319336
0.2445366866072518,1.3109931945800781
0.24844341350262478,1.313767910003662
0.244292516176291,1.3164963722229004
0.2423391527286045,1.3192710876464844
0.25479184470760585,1.3220493793487549
0.2530826516908802,1.3247861862182617
0.24356000488340857,1.3275656700134277
0.2469783909168599,1.3303332328796387
0.2423391527286045,1.3330695629119873
0.2420949822976437,1.3358516693115234
0.2540593334147234,1.3385820388793945
0.25210596996703694,1.3413496017456055
0.24380417531436938,1.344135046005249
0.24624587962397748,1.3468713760375977
0.24307166402148694,1.3496129512786865
0.24062995971187884,1.3524441719055176
0.2538151629837626,1.355180263519287
0.25235014039799775,1.3579175472259521
0.24502502746917343,1.360727071762085
0.24819924307166397,1.36346435546875
0.24478085703821262,1.3662018775939941
0.24136247100476127,1.3689799308776855
0.2535709925528018,1.3717663288116455
0.2518617995360761,1.3744993209838867
0.24478085703821262,1.37727689743042
0.24526919790013424,1.3800523281097412
0.24380417531436938,1.3827941417694092
0.2420949822976437,1.3855690956115723
0.2530826516908802,1.3882989883422852
0.25210596996703694,1.391057014465332
0.2464900500549383,1.3938319683074951
0.24575753876205586,1.3965718746185303
0.24600170919301667,1.3993568420410156
0.2423391527286045,1.4021222591400146
0.2530826516908802,1.4048597812652588
0.2540593334147234,1.4076342582702637
0.24624587962397748,1.4104053974151611
0.244292516176291,1.4131436347961426
0.24624587962397748,1.415924310684204
0.24307166402148694,1.4186639785766602
0.2557685264314491,1.4214451313018799
0.25503601513856666,1.4242322444915771
0.25039677695031126,1.4269602298736572
0.2469783909168599,1.4297006130218506
0.24746673177878153,1.4327161312103271
0.24526919790013424,1.43544602394104
0.25430350384568423,1.4381792545318604
0.2538151629837626,1.4409866333007812
0.24819924307166397,1.4437315464019775
0.24526919790013424,1.4464638233184814
0.2464900500549383,1.4492425918579102
0.24307166402148694,1.4520187377929688
0.25235014039799775,1.4547605514526367
0.25210596996703694,1.4575324058532715
0.2491759247955072,1.46030592918396
0.24502502746917343,1.4630494117736816
0.2467342204858991,1.4658489227294922
0.2440483457453302,1.468599796295166
0.25430350384568423,1.4714031219482422
0.2577218898791356,1.4741449356079102
0.24990843608838964,1.4768836498260498
0.2445366866072518,1.4796721935272217
0.24624587962397748,1.4824366569519043
0.24380417531436938,1.485172986984253
0.2518617995360761,1.4879529476165771
0.25503601513856666,1.4907495975494385
0.24990843608838964,1.4935009479522705
0.2440483457453302,1.4962882995605469
0.24795507264070316,1.499032735824585
0.244292516176291,1.5018022060394287
0.25210596996703694,1.5045833587646484
0.2540593334147234,1.5073208808898926
0.25015260651935045,1.5100908279418945
0.24307166402148694,1.5128793716430664
0.24819924307166397,1.5156209468841553
0.24380417531436938,1.5183649063110352
0.24990843608838964,1.5211858749389648
0.25210596996703694,1.5239195823669434
0.2491759247955072,1.5266578197479248
0.24111830057380046,1.5294404029846191
0.24624587962397748,1.5322058200836182
0.2420949822976437,1.5349395275115967
0.2491759247955072,1.5380187034606934
0.25283848125991937,1.5408010482788086
0.2491759247955072,1.543590784072876
0.24331583445244775,1.5463290214538574
0.2464900500549383,1.5490694046020508
0.24307166402148694,1.5518860816955566
0.2508851178122329,1.5546185970306396
0.2518617995360761,1.5573534965515137
0.24844341350262478,1.5601887702941895
0.2418508118666829,1.5629346370697021
0.24600170919301667,1.565709114074707
0.2420949822976437,1.568493127822876
0.2518617995360761,1.5712530612945557
0.2538151629837626,1.5739917755126953
0.24990843608838964,1.5767738819122314
0.24307166402148694,1.5795128345489502
0.24722256134782072,1.5822856426239014
0.2440483457453302,1.5850639343261719
0.2508851178122329,1.5877962112426758
0.2538151629837626,1.5905587673187256
0.2516176291051153,1.5933301448822021
0.24307166402148694,1.5960676670074463
0.24844341350262478,1.5988025665283203
0.24380417531436938,1.6016082763671875
0.25039677695031126,1.604344129562378
0.25479184470760585,1.607079029083252
0.2518617995360761,1.6098945140838623
0.2420949822976437,1.612635612487793
0.24966426565742883,1.6154170036315918
0.24331583445244775,1.6181509494781494
0.2489317543645464,1.6209299564361572
0.2538151629837626,1.6237173080444336
0.2516176291051153,1.6264512538909912
0.24038578928091803,1.6291859149932861
0.24795507264070316,1.6320059299468994
0.24258332315956532,1.6347382068634033
0.24722256134782072,1.6374690532684326
0.25503601513856666,1.640268087387085
0.25235014039799775,1.643000841140747
0.2398974484189964,1.6457364559173584
0.2491759247955072,1.6485157012939453
0.24282749359052613,1.6512830257415771
0.24819924307166397,1.654019832611084
0.25747771944817477,1.6567940711975098
0.25747771944817477,1.6595234870910645
0.2440483457453302,1.6622860431671143
0.25235014039799775,1.6650645732879639
0.24600170919301667,1.6678078174591064
0.2506409473812721,1.6705732345581055
0.2608961054816261,1.6733520030975342
0.2608961054816261,1.676088571548462
0.24624587962397748,1.6788225173950195
0.25747771944817477,1.6816346645355225
0.24990843608838964,1.6843867301940918
0.2518617995360761,1.687140941619873
0.26138444634354774,1.6899383068084717
0.2608961054816261,1.6926803588867188
0.24575753876205586,1.6954565048217773
0.2562568672933707,1.6981937885284424
0.24795507264070316,1.700972557067871
0.2508851178122329,1.703744649887085
0.26187278720546936,1.7064764499664307
0.2606519350506653,1.709221363067627
0.24624587962397748,1.7120251655578613
0.2555243560004883,1.7147610187530518
0.24771090220974235,1.7174978256225586
0.2491759247955072,1.7203083038330078
0.2601635941887437,1.7230606079101562
0.25967525332682206,1.725801706314087
0.244292516176291,1.728675127029419
0.2555243560004883,1.7314825057983398
0.24746673177878153,1.7342193126678467
0.24942009522646802,1.737001657485962
0.2601635941887437,1.739736795425415
0.2599194237577829,1.7425131797790527
0.24600170919301667,1.7453010082244873
0.2555243560004883,1.748035192489624
0.2469783909168599,1.750807523727417
0.24722256134782072,1.7535817623138428
0.25967525332682206,1.756309986114502
0.2582102307410572,1.7590410709381104
0.244292516176291,1.7618427276611328
0.25283848125991937,1.7645740509033203
0.24502502746917343,1.7673454284667969
0.24624587962397748,1.770118236541748
0.2577218898791356,1.7728521823883057
0.25747771944817477,1.7756304740905762
0.2440483457453302,1.7783758640289307
0.25235014039799775,1.781144142150879
0.24502502746917343,1.7839276790618896
0.2440483457453302,1.7866661548614502
0.25698937858625315,1.7893996238708496
0.25674520815529234,1.7922043800354004
0.2440483457453302,1.7949512004852295
0.2518617995360761,1.7976899147033691
0.24478085703821262,1.8005061149597168
0.24478085703821262,1.8032481670379639
0.25674520815529234,1.8059847354888916
0.2555243560004883,1.8087561130523682
0.24331583445244775,1.8115229606628418
0.24966426565742883,1.8142609596252441
0.2440483457453302,1.8170719146728516
0.24331583445244775,1.819833755493164
0.25430350384568423,1.822572946548462
0.25479184470760585,1.825348138809204
0.24307166402148694,1.828089714050293
0.2489317543645464,1.8308627605438232
0.24331583445244775,1.8336341381072998
0.2423391527286045,1.8363752365112305
0.25430350384568423,1.8391261100769043
0.2538151629837626,1.8419110774993896
0.24307166402148694,1.8446545600891113
0.24746673177878153,1.8474347591400146
0.24282749359052613,1.850229263305664
0.24136247100476127,1.852975606918335
0.2538151629837626,1.8557507991790771
0.2530826516908802,1.8584833145141602
0.24331583445244775,1.8612494468688965
0.24795507264070316,1.8640344142913818
0.2440483457453302,1.8667800426483154
0.2418508118666829,1.8695158958435059
0.2540593334147234,1.872316598892212
0.25283848125991937,1.875049114227295
0.24307166402148694,1.877786636352539
0.24551336833109505,1.8806004524230957
0.24282749359052613,1.883336067199707
0.24014161884995722,1.8860790729522705
0.2516176291051153,1.8888626098632812
0.25039677695031126,1.891631841659546
0.2420949822976437,1.8943755626678467
0.2440483457453302,1.8971631526947021
0.24307166402148694,1.8999357223510742
0.2396532779880356,1.9026763439178467
0.2516176291051153,1.9054477214813232
0.24966426565742883,1.908195972442627
0.2423391527286045,1.9109561443328857
0.24307166402148694,1.9137322902679443
0.24136247100476127,1.9165019989013672
0.23940910755707479,1.919280767440796
0.25039677695031126,1.9220507144927979
0.24819924307166397,1.924804449081421
0.24307166402148694,1.9275968074798584
0.24380417531436938,1.9303810596466064
0.24282749359052613,1.933121681213379
0.24136247100476127,1.9359066486358643
0.2530826516908802,1.938638687133789
0.2508851178122329,1.941406011581421
0.24526919790013424,1.9441864490509033
0.2445366866072518,1.946927547454834
0.24380417531436938,1.9496641159057617
0.24136247100476127,1.9524712562561035
0.2530826516908802,1.9552137851715088
0.2516176291051153,1.9579482078552246
0.2469783909168599,1.9607622623443604
0.244292516176291,1.9635000228881836
0.2440483457453302,1.966240406036377
0.24087413014283965,1.96901535987854
0.2530826516908802,1.971806526184082
0.2530826516908802,1.9745392799377441
0.2486875839335856,1.9773175716400146
0.24502502746917343,1.980093240737915
0.2469783909168599,1.9828336238861084
0.24331583445244775,1.985619306564331
0.2538151629837626,1.9883499145507812
0.2538151629837626,1.9911518096923828
0.2508851178122329,1.993910312652588
0.24624587962397748,1.9966464042663574
0.2489317543645464,1.9994235038757324
0.24478085703821262,2.0021934509277344
0.25503601513856666,2.0049245357513428
0.2562568672933707,2.007704496383667
0.25259431082895856,2.010479211807251
0.24624587962397748,2.013209342956543
0.2491759247955072,2.0159800052642822
0.24526919790013424,2.01872181892395
0.25283848125991937,2.021493673324585
0.25503601513856666,2.024277925491333
0.2516176291051153,2.027014970779419
0.2440483457453302,2.029784917831421
0.24966426565742883,2.0325753688812256
0.24575753876205586,2.035317897796631
0.2562568672933707,2.0384249687194824
0.25674520815529234,2.0413589477539062
0.2516176291051153,2.0441019535064697
0.24966426565742883,2.0468406677246094
0.25039677695031126,2.049619436264038
0.2469783909168599,2.0523929595947266
0.2577218898791356,2.0551435947418213
0.25698937858625315,2.057896852493286
0.25235014039799775,2.0606632232666016
0.24819924307166397,2.0634469985961914
0.2508851178122329,2.066179037094116
0.2464900500549383,2.0689175128936768
0.25918691246490044,2.073028802871704
0.25894274203393963,2.0757718086242676
0.24575753876205586,2.0785090923309326
0.2530826516908802,2.0813207626342773
0.24526919790013424,2.084341526031494
0.24771090220974235,2.087083339691162
0.25894274203393963,2.0899107456207275
0.25918691246490044,2.092923402786255
0.2440483457453302,2.0957140922546387
0.25479184470760585,2.0984597206115723
0.2464900500549383,2.1013169288635254
0.24990843608838964,2.1043639183044434
0.25967525332682206,2.1071059703826904
0.2586985716029788,2.1098709106445312
0.24478085703821262,2.112651824951172
0.25479184470760585,2.1156649589538574
0.24795507264070316,2.118407726287842
0.25283848125991937,2.121218204498291
0.25747771944817477,2.124262571334839
0.25503601513856666,2.127009630203247
0.24722256134782072,2.1298210620880127
0.2530826516908802,2.1325578689575195
0.24844341350262478,2.1356046199798584
0.25894274203393963,2.138343095779419
0.25967525332682206,2.141108274459839
0.2560126968624099,2.1438775062561035
0.2511292882431937,2.1468958854675293
0.2518617995360761,2.149637222290039
0.2491759247955072,2.152447462081909
0.2601635941887437,2.155453681945801
0.25967525332682206,2.158193826675415
0.25479184470760585,2.1610021591186523
0.2538151629837626,2.16373872756958
0.2535709925528018,2.166749954223633
0.25039677695031126,2.1695220470428467
0.2626052984983518,2.1722958087921143
0.2599194237577829,2.175034761428833
0.25015260651935045,2.178079128265381
0.2540593334147234,2.1808502674102783
0.24966426565742883,2.1836400032043457
0.24795507264070316,2.1866447925567627
0.2599194237577829,2.1893866062164307
0.2604077646197045,2.1921989917755127
0.24844341350262478,2.194941282272339
0.2540593334147234,2.197948932647705
0.24819924307166397,2.200767993927002
0.24722256134782072,2.203500986099243
0.25943108289586125,2.206238031387329
0.25943108289586125,2.2092678546905518
0.24526919790013424,2.212066888809204
0.2530826516908802,2.2147977352142334
0.24502502746917343,2.217655658721924
0.2464900500549383,2.2206220626831055
0.2577218898791356,2.223398208618164
0.2577218898791356,2.2261440753936768
0.2440483457453302,2.2291717529296875
0.25235014039799775,2.231989860534668
0.24624587962397748,2.234724283218384
0.24966426565742883,2.237464427947998
0.25894274203393963,2.2405636310577393
0.2577218898791356,2.2433011531829834
0.24502502746917343,2.2460365295410156
0.2530826516908802,2.248806953430176
0.24795507264070316,2.251852035522461
0.2538151629837626,2.2545931339263916
0.25967525332682206,2.2573697566986084
0.25943108289586125,2.260408401489258
0.2491759247955072,2.2631731033325195
0.2562568672933707,2.2659287452697754
0.2513734586741545,2.268662929534912
0.25967525332682206,2.271747589111328
0.26138444634354774,2.274522304534912
0.25747771944817477,2.2772583961486816
0.2508851178122329,2.2800660133361816
0.2530826516908802,2.2830636501312256
0.24966426565742883,2.2858076095581055
0.25894274203393963,2.2885782718658447
0.2586985716029788,2.291616439819336
0.2535709925528018,2.2943553924560547
0.25283848125991937,2.2971274852752686
0.25210596996703694,2.299891710281372
0.2491759247955072,2.302903413772583
0.26358198022219503,2.3056814670562744
0.2626052984983518,2.3084065914154053
0.25698937858625315,2.311288833618164
0.2582102307410572,2.314296245574951
0.25454767427664504,2.3170297145843506
0.2535709925528018,2.319830894470215
0.26675619582468557,2.32283616065979
0.267488707117568,2.325587749481201
0.25698937858625315,2.3284003734588623
0.26162861677450855,2.331206798553467
0.2555243560004883,2.334217071533203
0.2586985716029788,2.3370018005371094
0.2679770479794896,2.339745044708252
0.26822121841045043,2.3425168991088867
0.2530826516908802,2.345548629760742
0.26187278720546936,2.348287343978882
0.2530826516908802,2.351055383682251
0.2555243560004883,2.3541038036346436
0.2655353436698815,2.3568501472473145
0.2652911732389207,2.3596301078796387
0.2506409473812721,2.3623921871185303
0.25943108289586125,2.3654019832611084
0.2518617995360761,2.3681814670562744
0.25479184470760585,2.3709564208984375
0.2626052984983518,2.3736929893493652
0.2608961054816261,2.376751661300659
0.24819924307166397,2.379495143890381
0.2555243560004883,2.3822619915008545
0.24966426565742883,2.3853158950805664
0.2540593334147234,2.388050079345703
0.2577218898791356,2.390817165374756
0.2577218898791356,2.3935954570770264
0.24624587962397748,2.3966071605682373
0.2530826516908802,2.3993823528289795
0.2489317543645464,2.4021637439727783
0.2555243560004883,2.4048960208892822
0.2557685264314491,2.407940149307251
0.2538151629837626,2.4107155799865723
0.24771090220974235,2.413456678390503
0.24990843608838964,2.4165070056915283
0.24526919790013424,2.4192466735839844
0.2555243560004883,2.4220175743103027
0.25479184470760585,2.4247865676879883
0.2464900500549383,2.427821397781372
0.24600170919301667,2.4306137561798096
0.2491759247955072,2.433398962020874
0.2423391527286045,2.436136484146118
0.25210596996703694,2.4391794204711914
0.25039677695031126,2.441986322402954
0.2420949822976437,2.444727659225464
0.24478085703821262,2.4477550983428955
0.2418508118666829,2.450561285018921
0.23843242583323154,2.4533042907714844
0.24990843608838964,2.4560911655426025
0.2489317543645464,2.4591102600097656
0.2374557441093883,2.4618899822235107
0.2440483457453302,2.4646711349487305
0.23867659626419235,2.467413902282715
0.24111830057380046,2.470670223236084
0.2538151629837626,2.473459243774414
0.25430350384568423,2.4761903285980225
0.24014161884995722,2.4792423248291016
0.2489317543645464,2.4820268154144287
0.24111830057380046,2.4847707748413086
0.24282749359052613,2.4875540733337402
0.2586985716029788,2.4906165599823
0.2530826516908802,2.493354320526123
0.24136247100476127,2.4961347579956055
0.2560126968624099,2.498873233795166
0.25015260651935045,2.501906156539917
0.2540593334147234,2.504680633544922
0.2586985716029788,2.507425546646118
0.25698937858625315,2.5104622840881348
0.24624587962397748,2.5132501125335693
0.25210596996703694,2.515986919403076
0.2464900500549383,2.5187222957611084
0.2508851178122329,2.5218019485473633
0.2555243560004883,2.524538040161133
0.2508851178122329,2.52732515335083
0.24307166402148694,2.530113458633423
0.24771090220974235,2.533137559890747
0.2440483457453302,2.535919189453125
0.2555243560004883,2.538961172103882
0.2540593334147234,2.5420162677764893
0.2464900500549383,2.5448036193847656
0.24819924307166397,2.547546863555908
0.24624587962397748,2.5503151416778564
0.25039677695031126,2.5533523559570312
0.2655353436698815,2.5560922622680664
0.26675619582468557,2.558830738067627
0.26407032108411665,2.561640977859497
0.267488707117568,2.5646564960479736
0.25943108289586125,2.5674307346343994
0.2557685264314491,2.5702273845672607
0.2696862409962153,2.573239326477051
0.26626785496276395,2.5760200023651123
0.2511292882431937,2.578754425048828
0.2586985716029788,2.581521987915039
0.25430350384568423,2.584566593170166
0.2518617995360761,2.58729887008667
0.2608961054816261,2.590057849884033
0.2606519350506653,2.5928292274475098
0.25967525332682206,2.595839023590088
0.24990843608838964,2.5985827445983887
0.244292516176291,2.6013972759246826
0.24014161884995722,2.604417085647583
0.24819924307166397,2.607178211212158
0.24990843608838964,2.609971284866333
0.23550238066170182,2.6127095222473145
0.24600170919301667,2.61576247215271
0.2440483457453302,2.6185009479522705
0.24136247100476127,2.621269941329956
0.24819924307166397,2.62404727935791
0.24771090220974235,2.6270804405212402
0.23599072152362344,2.6298608779907227
0.24307166402148694,2.6326491832733154
0.2374557441093883,2.6356990337371826
0.23403735807593695,2.6384472846984863
0.235258210230741,2.6412577629089355
0.23232816505921128,2.6439995765686035
0.22427054083750453,2.647010564804077
0.22768892687095588,2.6498165130615234
0.2328165059211329,2.6525561809539795
0.2652911732389207,2.655334949493408
0.27530216090831394,2.65834379196167
0.28433646685386393,2.6611168384552
0.281650592113295,2.6638991832733154
0.28751068245635447,2.666908025741577
0.2831156146990599,2.6696505546569824
0.29190575021364906,2.672457695007324
0.2899523867659626,2.6751983165740967
0.28042973995849096,2.678210973739624
0.27505799047735313,2.6810173988342285
0.26651202539372476,2.683760166168213
0.26602368453180314,2.686487913131714
0.2694420705652545,2.689509630203247
0.2760346722011964,2.6923060417175293
0.27041875228909773,2.6950464248657227
0.27579050177023556,2.6981008052825928
0.2770113539250396,2.700880527496338
0.2831156146990599,2.7036614418029785
0.29605664753998284,2.7064013481140137
0.3019167378830423,2.7094101905822754
0.29385911366133555,2.712223768234253
0.29874252228055176,2.7149643898010254
0.28946404590404096,2.7176992893218994
0.2931266023684531,2.721519708633423
0.2882431937492369,2.7242586612701416
0.28213893297521664,2.72699236869812
0.2792088878036869,2.7298295497894287
0.2999633744353558,2.7325758934020996
0.2955683066780612,2.7353670597076416
0.31021853253570986,2.7381083965301514
0.3221828836527896,2.740898370742798
0.3407398364058112,2.743680238723755
0.32828714442680984,2.746413469314575
0.32853131485777065,2.749150037765503
0.3180319863264558,2.751962423324585
0.30973019167378824,2.7546935081481934
0.30826516908802337,2.7574398517608643
0.30973019167378824,2.7602500915527344
0.2950799658161396,2.762984037399292
0.299719204004395,2.765707492828369
0.2909290684898058,2.768505573272705
0.30094005615919905,2.7712855339050293
0.30973019167378824,2.774019479751587
0.32145037235990714,2.776796340942383
0.3085093395189842,2.779531478881836
0.30826516908802337,2.782294273376465
0.299719204004395,2.7850773334503174
0.29385911366133555,2.7878072261810303
0.2887315346111585,2.790926456451416
0.28897570504211934,2.7947940826416016
0.28506897814674637,2.7982161045074463
0.2743254791844707,2.801182746887207
0.26187278720546936,2.8039865493774414
0.25967525332682206,2.807372570037842
0.25747771944817477,2.810511589050293
0.2467342204858991,2.8133175373077393
0.2633378097912342,2.816335916519165
0.2562568672933707,2.8193631172180176
0.2648028323769991,2.822619676589966
0.26382615065315584,2.8258025646209717
0.25210596996703694,2.8288960456848145
0.2608961054816261,2.8323214054107666
0.25479184470760585,2.8354873657226562
0.2718837748748626,2.838541030883789
0.27505799047735313,2.8418772220611572
0.27359296789158827,2.844999074935913
0.27579050177023556,2.8481945991516113
0.2696862409962153,2.8512978553771973
0.27066292272005854,2.8544182777404785
0.29141740935172744,2.8575496673583984
0.2967891588328653,2.860640048980713
0.3019167378830423,2.8637049198150635
0.3107068733976315,2.8666510581970215
0.30094005615919905,2.8700082302093506
0.32340373580759363,2.8729493618011475
0.3199853497741423,2.8757431507110596
0.3107068733976315,2.878971815109253
0.33805396166524226,2.882251739501953
0.3273104627029666,2.8850584030151367
0.3251129288243193,2.887934684753418
0.3251129288243193,2.891123056411743
0.31925283848125985,2.8942441940307617
0.3114393846905139,2.897350788116455
0.3133927481382004,2.9005825519561768
0.331949700891222,2.9038004875183105
0.3597851300207544,2.906928539276123
0.3707727994139909,2.9101123809814453
0.35661091441826387,2.913302421569824
0.3617384934684409,2.9164021015167236
0.3485532901965571,2.9196255207061768
0.3429373702844585,2.9227635860443115
0.34220485899157604,2.9258153438568115
0.3414723476986936,2.928987741470337
0.3505066536442436,2.9322478771209717
0.3417165181296544,2.9351866245269775
0.34928580148943955,2.9382283687591553
0.3570992552801855,2.9412689208984375
0.3456232450250274,2.9443633556365967
0.33976315468196794,2.9473965167999268
0.3361005982175558,2.950279474258423
0.3339030643389085,2.9535584449768066
0.3321938713221828,2.956686019897461
0.331949700891222,2.9596478939056396
0.3153461115858869,2.962533712387085
0.331949700891222,2.965566635131836
0.3302405078744963,2.968808889389038
0.3507508240752044,2.971893548965454
0.35343669881577333,2.9750001430511475
0.3475766084727139,2.9782471656799316
0.3485532901965571,2.9814488887786865
0.3429373702844585,2.9846372604370117
0.35148333536808685,2.9877820014953613
0.35636674398730306,2.9909491539001465
0.36735441338053954,2.9941956996917725
0.3617384934684409,2.9972989559173584
0.36027347088267603,3.0005013942718506
0.35856427786595035,3.003598690032959
0.38102795751434493,3.006643056869507
0.37419118544744223,3.0098512172698975
0.3556342326944206,3.0128605365753174
0.37663288975705034,3.0159125328063965
0.37028445855206926,3.019150972366333
0.36735441338053954,3.022102117538452
0.36100598217555846,3.024986505508423
0.36027347088267603,3.028164863586426
0.36564522036381386,3.031458854675293
0.3553900622634598,3.034313201904297
0.3407398364058112,3.0374250411987305
0.3341472347698693,3.040642499923706
0.3253570992552801,3.0437264442443848
0.3321938713221828,3.0467100143432617
0.34684409717983145,3.0500056743621826
0.3361005982175558,3.053159236907959
0.34415822243926253,3.05641770362854
0.340984006836772,3.059627056121826
0.32853131485777065,3.0627989768981934
0.3343914052008301,3.0660061836242676
0.3368331095104382,3.069127082824707
0.35392503967769495,3.072425127029419
0.3546575509705774,3.0754153728485107
0.35636674398730306,3.0785508155822754
0.3578317665730679,3.0818979740142822
0.34928580148943955,3.084834098815918
0.3527041875228909,3.0878849029541016
0.3578317665730679,3.0908093452453613
0.359052618727872,3.0935862064361572
0.35148333536808685,3.096414089202881
0.35343669881577333,3.0991504192352295
0.35368086924673414,3.1019303798675537
0.346111585886949,3.1047110557556152
0.3382981320962031,3.1074442863464355
0.34415822243926253,3.1102147102355957
0.3361005982175558,3.1129887104034424
0.3253570992552801,3.1157259941101074
0.3390306433890855,3.118464231491089
0.3324380417531436,3.1212804317474365
0.32193871322182877,3.1240172386169434
0.3155902820168477,3.1267483234405518
0.30289341960688554,3.1295197010040283
0.30069588572823824,3.1323153972625732
0.29190575021364906,3.13505482673645
0.2921499206446099,3.137835741043091
0.30557929434745446,3.1406137943267822
0.2977658405567085,3.143400192260742
0.2950799658161396,3.14614200592041
0.31436942986204364,3.148876428604126
0.3065559760712977,3.15169358253479
0.30826516908802337,3.1544318199157715
0.3094860212428274,3.1571719646453857
0.3038701013307288,3.1599972248077393
0.29605664753998284,3.1627449989318848
0.290684898058845,3.165494203567505
0.28433646685386393,3.16827654838562
0.2931266023684531,3.1710753440856934
0.2977658405567085,3.1738123893737793
0.3068001465022585,3.1765873432159424
0.3038701013307288,3.179328680038452
0.31021853253570986,3.182103395462036
0.2999633744353558,3.184878349304199
0.28506897814674637,3.187610149383545
0.29874252228055176,3.1903927326202393
0.2953241362471004,3.193166494369507
0.2784763765108045,3.1959033012390137
0.2882431937492369,3.1986451148986816
0.28042973995849096,3.201467990875244
0.28751068245635447,3.20420241355896
0.30289341960688554,3.206940174102783
0.3014283970211207,3.209716558456421
0.3085093395189842,3.2124903202056885
0.3256012696862409,3.2152631282806396
0.31729947503357336,3.218005657196045
0.32584544011720173,3.2207767963409424
0.3439140520083017,3.2235493659973145
0.34196068856061523,3.2262864112854004
0.32901965571969227,3.2290279865264893
0.337077279941399,3.2318472862243652
0.32657795141008417,3.234584093093872
0.33780979123428145,3.237326145172119
0.34928580148943955,3.2401607036590576
0.36125015260651927,3.2429006099700928
0.3531925283848125,3.245645761489868
0.355145891832499,3.248426675796509
0.34464656330118415,3.251197576522827
0.35197167623000847,3.2539334297180176
0.37663288975705034,3.256704330444336
0.3807837870833841,3.259441375732422
0.3690636063972652,3.2622132301330566
0.37687706018801115,3.2649896144866943
0.37223782199975575,3.267732620239258
0.3715053107068733,3.270623207092285
0.373214503723599,3.2734131813049316
0.369307776828226,3.2761473655700684
0.35880844829691116,3.2788870334625244
0.3578317665730679,3.2816951274871826
0.35123916493712604,3.284435987472534
0.3341472347698693,3.2871861457824707
0.34269319985349767,3.28999924659729
0.34196068856061523,3.2927355766296387
0.33292638261506524,3.2955150604248047
0.3273104627029666,3.298253297805786
0.3185203271883774,3.3010222911834717
0.3094860212428274,3.3038089275360107
0.3160786228787693,3.306550979614258
0.31656696374069093,3.3092823028564453
0.31192772555243553,3.3120906352996826
0.31461360029300445,3.3148210048675537
0.3155902820168477,3.317560911178589
0.30973019167378824,3.3203718662261963
0.3180319863264558,3.323103666305542
0.3116835551214747,3.325838327407837
0.2977658405567085,3.32861590385437
0.294591624954218,3.3313753604888916
0.29141740935172744,3.334122896194458
0.28677817116347204,3.336909294128418
0.30802099865706256,3.3396501541137695
0.3063118056403369,3.342423677444458
0.29385911366133555,3.345205068588257
0.29385911366133555,3.347947835922241
0.2931266023684531,3.350715398788452
0.290684898058845,3.3535101413726807
0.3107068733976315,3.356248140335083
0.31266023684531796,3.3589751720428467
0.30777682822610175,3.3617875576019287
0.30509095348553283,3.3645236492156982
0.30362593089976797,3.3673038482666016
0.2953241362471004,3.37007212638855
0.3160786228787693,3.3728108406066895
0.31436942986204364,3.375624418258667
0.3043584421926504,3.3783652782440186
0.30289341960688554,3.381138563156128
0.30094005615919905,3.38391375541687
0.29581247710902203,3.386652946472168
0.30289341960688554,3.389390230178833
0.30069588572823824,3.392238140106201
0.2977658405567085,3.3950576782226562
0.2970333292638261,3.3977890014648438
0.2926382615065315,3.400606870651245
0.28506897814674637,3.40334415435791
0.2887315346111585,3.4060802459716797
0.2884873641801977,3.408860206604004
0.2762788426321572,3.4116556644439697
0.27505799047735313,3.414395809173584
0.2762788426321572,3.417175531387329
0.27090709315101935,3.419945240020752
0.2862898303015504,3.422680616378784
0.29385911366133555,3.425461530685425
0.28726651202539366,3.4281914234161377
0.2977658405567085,3.430837631225586
0.31241606641435715,3.432229995727539
0.3094860212428274,3.433602809906006
0.3063118056403369,3.4349725246429443
0.3038701013307288,3.436340093612671
0.30118422659015986,3.437709331512451
0.30777682822610175,3.4390878677368164
0.3046026126236112,3.4405484199523926
0.30582346477841527,3.4419193267822266
0.30826516908802337,3.443288564682007
0.30289341960688554,3.4446544647216797
0.2970333292638261,3.446023941040039
0.3024050787449639,3.447415590286255
0.29849835184959095,3.4487814903259277
0.2970333292638261,3.450164556503296
0.2970333292638261,3.451533079147339
0.29654498840190446,3.4529008865356445
0.2933707727994139,3.4542665481567383
0.2967891588328653,3.4556572437286377
0.2923940910755707,3.4570252895355225
0.29117323892076663,3.4583935737609863
0.2921499206446099,3.4597747325897217
0.2831156146990599,3.461146593093872
0.2760346722011964,3.4625155925750732
0.28213893297521664,3.4639036655426025
0.2814064216823342,3.465268135070801
0.27798803564888286,3.4666357040405273
0.2743254791844707,3.468003749847412
0.27310462702966665,3.4693691730499268
0.2716396044439018,3.470754384994507
0.2787205469417653,3.472144365310669
0.2770113539250396,3.4735116958618164
0.276523013063118,3.474877119064331
0.27969722866560853,3.4762449264526367
0.27310462702966665,3.4776108264923096
0.26870955927237206,3.4789748191833496
0.2716396044439018,3.4803781509399414
0.27041875228909773,3.4817440509796143
0.2672445366866072,3.4831085205078125
0.26382615065315584,3.4844720363616943
0.26651202539372476,3.4858362674713135
0.2696862409962153,3.48721981048584
0.28433646685386393,3.4885878562927246
0.2901965571969234,3.4899778366088867
0.28726651202539366,3.491344928741455
0.2928824319374923,3.492711305618286
0.2887315346111585,3.494079113006592
0.2882431937492369,3.4954705238342285
0.30118422659015986,3.4968364238739014
0.31461360029300445,3.498201370239258
0.31217189598339634,3.4995827674865723
0.30777682822610175,3.5009725093841553
0.30777682822610175,3.502342700958252
0.30557929434745446,3.5037333965301514
0.30728848736418013,3.5051023960113525
0.308753509949945,3.5064706802368164
0.30533512391649364,3.507838249206543
0.30533512391649364,3.5092077255249023
0.30118422659015986,3.510704755783081
0.3014283970211207,3.5120952129364014
0.30094005615919905,3.513462543487549
0.30362593089976797,3.5148324966430664
0.29825418141863014,3.5161972045898438
0.2948357953851788,3.517561912536621
0.2970333292638261,3.5189268589019775
0.30045171529727743,3.5203402042388916
0.3016725674520815,3.5217063426971436
0.29898669271151257,3.5230743885040283
0.29605664753998284,3.5244388580322266
0.2977658405567085,3.525804281234741
0.2909290684898058,3.5271811485290527
0.28433646685386393,3.5285611152648926
0.28262727383713826,3.5299558639526367
0.28726651202539366,3.5313258171081543
0.28506897814674637,3.5335161685943604
0.2794530582346477,3.536304473876953
0.28506897814674637,3.5393402576446533
0.2814064216823342,3.542113780975342
0.2814064216823342,3.544896364212036
0.27749969478696124,3.5476291179656982
0.27774386521792205,3.5503931045532227
0.2743254791844707,3.553170680999756
0.2831156146990599,3.555912494659424
0.2811622512513734,3.55865478515625
0.27530216090831394,3.561464548110962
0.2701745818581369,3.564199924468994
0.272616286167745,3.5669362545013428
0.26407032108411665,3.569707155227661
0.2648028323769991,3.5724682807922363
0.26211695763643017,3.575232744216919
0.26187278720546936,3.5779643058776855
0.26187278720546936,3.5807278156280518
0.2721279453058234,3.5835061073303223
0.26577951410084233,3.586236000061035
0.2699304114271761,3.588968515396118
0.2696862409962153,3.5917787551879883
0.2626052984983518,3.594512939453125
0.25967525332682206,3.5972514152526855
0.26870955927237206,3.6000564098358154
0.2608961054816261,3.6027984619140625
0.26382615065315584,3.6055333614349365
0.2672445366866072,3.6083338260650635
0.26162861677450855,3.6111044883728027
0.2516176291051153,3.6138391494750977
0.25698937858625315,3.6166179180145264
0.2511292882431937,3.61934494972229
0.2489317543645464,3.622119426727295
0.2530826516908802,3.6249332427978516
0.25259431082895856,3.627673387527466
0.24258332315956532,3.6304383277893066
0.24990843608838964,3.6332178115844727
0.24600170919301667,3.635969400405884
0.25235014039799775,3.6387062072753906
0.25674520815529234,3.6415233612060547
0.2555243560004883,3.6442599296569824
0.24331583445244775,3.646998643875122
0.2518617995360761,3.649822950363159
0.24746673177878153,3.652571678161621
0.25943108289586125,3.65535044670105
0.26675619582468557,3.6580867767333984
0.2648028323769991,3.6608569622039795
0.25235014039799775,3.6636321544647217
0.2608961054816261,3.6663713455200195
0.25430350384568423,3.669110059738159
0.26675619582468557,3.671921491622925
0.2784763765108045,3.6746702194213867
0.2743254791844707,3.6774115562438965
0.2652911732389207,3.680220127105713
0.28921987547308015,3.682953119277954
0.28287144426809907,3.68569016456604
0.2862898303015504,3.688464403152466
0.2860456598705896,3.6912293434143066
0.2836039555609815,3.6939640045166016
0.2716396044439018,3.696737289428711
0.28433646685386393,3.699475049972534
0.27823220607984367,3.7022452354431152
0.27994139909656934,3.7050259113311768
0.28970821633500177,3.707759141921997
0.2882431937492369,3.710524082183838
0.272616286167745,3.713308095932007
0.28042973995849096,3.7160422801971436
0.2743254791844707,3.718773603439331
0.2784763765108045,3.7215797901153564
0.2811622512513734,3.724325656890869
0.2862898303015504,3.7270636558532715
0.27359296789158827,3.7298643589019775
0.2794530582346477,3.732604742050171
0.2723721157367842,3.735408067703247
0.2743254791844707,3.7381510734558105
0.28189476254425583,3.7409470081329346
0.27749969478696124,3.743725299835205
0.2626052984983518,3.746464252471924
0.27041875228909773,3.749202251434326
0.25967525332682206,3.753307580947876
0.26675619582468557,3.7560529708862305
0.267488707117568,3.7587883472442627
0.2650470028079599,3.7616021633148193
0.25967525332682206,3.7646191120147705
0.2530826516908802,3.767390251159668
0.24746673177878153,3.7701892852783203
0.24478085703821262,3.773205518722534
0.24600170919301667,3.7760043144226074
0.24307166402148694,3.7787492275238037
0.244292516176291,3.7815194129943848
0.23916493712611397,3.7845611572265625
0.23794408497130992,3.7873053550720215
0.24624587962397748,3.7900784015655518
0.24624587962397748,3.7928574085235596
0.2398974484189964,3.7958786487579346
0.2469783909168599,3.79862904548645
0.24258332315956532,3.801438570022583
0.2418508118666829,3.8044543266296387
0.2530826516908802,3.8072335720062256
0.2508851178122329,3.8100032806396484
0.23647906238554506,3.8127410411834717
0.24771090220974235,3.8157942295074463
0.24111830057380046,3.8185415267944336
0.24136247100476127,3.8213162422180176
0.25479184470760585,3.824098587036133
0.24819924307166397,3.8271162509918213
0.23403735807593695,3.8298897743225098
0.24795507264070316,3.832674741744995
0.24111830057380046,3.835719347000122
0.24111830057380046,3.838482618331909
0.24819924307166397,3.8413054943084717
0.2469783909168599,3.844048023223877
0.23428152850689776,3.8470652103424072
0.24526919790013424,3.849871873855591
0.23916493712611397,3.852611780166626
0.24136247100476127,3.855393648147583
0.2469783909168599,3.8584225177764893
0.24380417531436938,3.8612024784088135
0.23599072152362344,3.8640029430389404
0.2445366866072518,3.867021322250366
0.24331583445244775,3.8697922229766846
0.25503601513856666,3.872574806213379
0.26138444634354774,3.875312089920044
0.2628494689293126,3.878321886062622
0.262361128067391,3.8811304569244385
0.26651202539372476,3.883863687515259
0.26187278720546936,3.886599063873291
0.272616286167745,3.8896195888519287
0.2723721157367842,3.892416477203369
0.267488707117568,3.895174264907837
0.26407032108411665,3.8982033729553223
0.2652911732389207,3.9009850025177
0.26358198022219503,3.9037673473358154
0.2784763765108045,3.9064977169036865
0.27749969478696124,3.909501791000366
0.27090709315101935,3.912313938140869
0.2723721157367842,3.9150516986846924
0.26602368453180314,3.917783737182617
0.26358198022219503,3.9208667278289795
0.27066292272005854,3.9236013889312744
0.2694420705652545,3.926332950592041
0.25943108289586125,3.929394245147705
0.26211695763643017,3.93216872215271
0.2557685264314491,3.9349048137664795
0.2557685264314491,3.9376938343048096
0.2696862409962153,3.940755844116211
0.26651202539372476,3.9435315132141113
0.25235014039799775,3.9462640285491943
0.2601635941887437,3.9489991664886475
0.25235014039799775,3.952084541320801
0.2491759247955072,3.9548287391662598
0.2582102307410572,3.9575626850128174
0.2582102307410572,3.96063232421875
0.24307166402148694,3.963383913040161
0.2535709925528018,3.9661219120025635
0.24526919790013424,3.9688992500305176
0.2508851178122329,3.9719338417053223
0.26382615065315584,3.974679946899414
0.2626052984983518,3.9774603843688965
0.2486875839335856,3.9802374839782715
0.2555243560004883,3.983313798904419
0.24966426565742883,3.9860613346099854
0.25283848125991937,3.988792896270752
0.25894274203393963,3.9917476177215576
0.2579660603100964,3.994621753692627
0.24771090220974235,3.997363328933716
0.2530826516908802,4.000166177749634
0.24722256134782072,4.003176212310791
0.25430350384568423,4.0059123039245605
0.25747771944817477,4.008687496185303
0.2518617995360761,4.011474847793579
0.2464900500549383,4.014486074447632
0.2508851178122329,4.01731276512146
0.25015260651935045,4.020169258117676
0.25479184470760585,4.023039102554321
0.2560126968624099,4.025911808013916
0.2516176291051153,4.028645038604736
0.25503601513856666,4.03145432472229
0.2601635941887437,4.03446364402771
0.25698937858625315,4.03753399848938
0.26870955927237206,4.040385007858276
0.26675619582468557,4.043124675750732
0.25479184470760585,4.046147584915161
0.2608961054816261,4.048930644989014
0.25479184470760585,4.051696538925171
0.25430350384568423,4.054700613021851
0.2648028323769991,4.057482004165649
0.2652911732389207,4.060253143310547
0.2518617995360761,4.0629870891571045
0.2582102307410572,4.066034317016602
0.25039677695031126,4.068775415420532
0.2535709925528018,4.071667432785034
0.26602368453180314,4.074400901794434
0.2648028323769991,4.077422142028809
0.25015260651935045,4.080228567123413
0.25943108289586125,4.082957744598389
0.2518617995360761,4.0859534740448
0.25698937858625315,4.088735342025757
0.26602368453180314,4.091498851776123
0.267488707117568,4.094232797622681
0.2540593334147234,4.097274541854858
0.26187278720546936,4.100043296813965
0.2560126968624099,4.1027748584747314
0.2626052984983518,4.105547904968262
0.27066292272005854,4.108560562133789
0.26870955927237206,4.111377000808716
0.25747771944817477,4.114121437072754
0.26358198022219503,4.1170594692230225
0.25918691246490044,4.1199610233306885
0.267488707117568,4.122701644897461
0.2672445366866072,4.1254353523254395
0.2630936393602734,4.128471374511719
0.2579660603100964,4.13126802444458
0.26162861677450855,4.134009838104248
0.25698937858625315,4.1367833614349365
0.26675619582468557,4.139851331710815
0.26577951410084233,4.142589807510376
0.2606519350506653,4.1453728675842285
0.25943108289586125,4.148180723190308
0.25918691246490044,4.151175260543823
0.25698937858625315,4.153931617736816
0.2701745818581369,4.156667232513428
0.2677328775485288,4.15971565246582
0.25967525332682206,4.1624908447265625
0.26211695763643017,4.16523289680481
0.25894274203393963,4.168008327484131
0.25674520815529234,4.1710522174835205
0.2677328775485288,4.173792123794556
0.26602368453180314,4.176574230194092
0.2538151629837626,4.179315567016602
0.25943108289586125,4.1823508739471436
0.2530826516908802,4.185134172439575
0.2560126968624099,4.187873125076294
0.26846538884141125,4.190922975540161
0.26870955927237206,4.1937010288238525
0.2560126968624099,4.196432828903198
0.26187278720546936,4.199177265167236
0.25210596996703694,4.202232599258423
0.25039677695031126,4.2049720287323
0.26162861677450855,4.2077555656433105
0.2608961054816261,4.210523843765259
0.24526919790013424,4.213536262512207
0.2562568672933707,4.216325521469116
0.2491759247955072,4.219063997268677
0.25039677695031126,4.222111225128174
0.2586985716029788,4.224895000457764
0.25918691246490044,4.227638244628906
0.24575753876205586,4.230406999588013
0.2538151629837626,4.233457326889038
0.24819924307166397,4.236196517944336
0.2535709925528018,4.238937139511108
0.25967525332682206,4.241767168045044
0.2577218898791356,4.244789123535156
0.24819924307166397,4.247570753097534
0.25430350384568423,4.250364780426025
0.2491759247955072,4.253385305404663
0.25747771944817477,4.256165266036987
0.26211695763643017,4.258898735046387
0.26358198022219503,4.261665344238281
0.25674520815529234,4.264684677124023
0.25943108289586125,4.267415523529053
0.25479184470760585,4.270185708999634
0.2628494689293126,4.272960424423218
0.26358198022219503,4.275968551635742
0.2579660603100964,4.278707027435303
0.25479184470760585,4.281516075134277
0.25479184470760585,4.284517765045166
0.2516176291051153,4.287292242050171
0.2626052984983518,4.290063858032227
0.2608961054816261,4.292794942855835
0.2535709925528018,4.295835733413696
0.25479184470760585,4.298576831817627
0.2508851178122329,4.301343679428101
0.2489317543645464,4.304125547409058
0.2601635941887437,4.307137727737427
0.2586985716029788,4.309983491897583
0.24990843608838964,4.3127782344818115
0.2540593334147234,4.315777540206909
0.24771090220974235,4.318523406982422
0.24624587962397748,4.321334600448608
0.2538151629837626,4.32407021522522
0.25430350384568423,4.327102899551392
0.2423391527286045,4.329889535903931
0.25015260651935045,4.332618713378906
0.24258332315956532,4.335389852523804
0.24282749359052613,4.338413715362549
0.25430350384568423,4.341197967529297
0.2538151629837626,4.344014644622803
0.24062995971187884,4.347033500671387
0.2508851178122329,4.349795579910278
0.24331583445244775,4.3525800704956055
0.2440483457453302,4.355320930480957
0.2530826516908802,4.358327388763428
0.2518617995360761,4.36114501953125
0.23940910755707479,4.363888740539551
0.2491759247955072,4.366629362106323
0.2423391527286045,4.369668006896973
0.24819924307166397,4.372469902038574
0.25430350384568423,4.375263929367065
0.25210596996703694,4.378262281417847
0.24136247100476127,4.381037473678589
0.2491759247955072,4.383817911148071
0.24526919790013424,4.386558294296265
0.2506409473812721,4.389561891555786
0.2538151629837626,4.392373323440552
0.2508851178122329,4.395112752914429
0.24526919790013424,4.39785099029541
0.2491759247955072,4.401670694351196
0.24771090220974235,4.404415607452393
0.2601635941887437,4.407172203063965
0.2577218898791356,4.409955978393555
0.24844341350262478,4.412695646286011
0.25235014039799775,4.415459394454956
0.24966426565742883,4.418198108673096
0.24575753876205586,4.420969247817993
0.25674520815529234,4.42375373840332
0.2557685264314491,4.426487922668457
0.24771090220974235,4.429227352142334
0.24990843608838964,4.432040691375732
0.2469783909168599,4.434781551361084
0.2440483457453302,4.43752121925354
0.25479184470760585,4.4403462409973145
0.25283848125991937,4.4430835247039795
0.24551336833109505,4.445828199386597
0.24722256134782072,4.448610305786133
0.24526919790013424,4.451387166976929
0.24307166402148694,4.45412802696228
0.2535709925528018,4.456909894943237
0.25235014039799775,4.459641695022583
0.2469783909168599,4.462402820587158
0.24771090220974235,4.465181112289429
0.2464900500549383,4.467911958694458
0.24526919790013424,4.470675230026245
0.2540593334147234,4.4734508991241455
0.2508851178122329,4.476174831390381
0.2464900500549383,4.478908538818359
0.24526919790013424,4.4817163944244385
0.24600170919301667,4.484448671340942
0.2423391527286045,4.487218856811523
0.2513734586741545,4.49001669883728
0.2508851178122329,4.492746353149414
0.2464900500549383,4.49552321434021
0.2440483457453302,4.498265504837036
0.2464900500549383,4.50102972984314
0.2418508118666829,4.5038063526153564
0.25015260651935045,4.506542682647705
0.24990843608838964,4.509288311004639
0.24526919790013424,4.512097597122192
0.2420949822976437,4.514841794967651
0.24331583445244775,4.517578125
0.23867659626419235,4.5203797817230225
0.2469783909168599,4.523115634918213
0.24819924307166397,4.5258519649505615
0.24478085703821262,4.528634071350098
0.2398974484189964,4.531401634216309
0.24111830057380046,4.534140586853027
0.23550238066170182,4.537217140197754
0.24624587962397748,4.540008068084717
0.2464900500549383,4.542743682861328
0.24356000488340857,4.545536041259766
0.24160664143572208,4.5482707023620605
0.24307166402148694,4.551295518875122
0.23916493712611397,4.554041624069214
0.24966426565742883,4.556791543960571
0.2469783909168599,4.559572458267212
0.244292516176291,4.562338352203369
0.24356000488340857,4.565075874328613
0.244292516176291,4.567856550216675
0.24282749359052613,4.570626735687256
0.25283848125991937,4.573355674743652
0.25039677695031126,4.5761284828186035
0.24575753876205586,4.578864097595215
0.24331583445244775,4.581629991531372
0.2464900500549383,4.584409475326538
0.24111830057380046,4.5871477127075195
0.2491759247955072,4.589913606643677
0.2489317543645464,4.592700481414795
0.244292516176291,4.595432758331299
0.24038578928091803,4.598162651062012
0.24307166402148694,4.600977897644043
0.23818825540227073,4.603715419769287
0.2464900500549383,4.606452703475952
0.24844341350262478,4.6092307567596436
0.24600170919301667,4.612023115158081
0.24062995971187884,4.614755868911743
0.24624587962397748,4.617539644241333
0.2418508118666829,4.62031102180481
0.24795507264070316,4.6230528354644775
0.2491759247955072,4.625825643539429
0.24819924307166397,4.628564119338989
0.24136247100476127,4.631397247314453
0.24526919790013424,4.6341331005096436
0.24062995971187884,4.636874675750732
0.2469783909168599,4.63965916633606
0.24844341350262478,4.642446994781494
0.24795507264070316,4.64519739151001
0.24038578928091803,4.6479809284210205
0.24502502746917343,4.650760173797607
0.23916493712611397,4.653500556945801
0.2445366866072518,4.6562793254852295
0.24746673177878153,4.659021854400635
0.2464900500549383,4.661791563034058
0.23892076669515316,4.66457462310791
0.2440483457453302,4.667313814163208
0.24062995971187884,4.6700828075408936
0.24526919790013424,4.672861337661743
0.2489317543645464,4.675599575042725
0.24746673177878153,4.6783435344696045
0.2372115736784275,4.681153059005737
0.2445366866072518,4.6838929653167725
0.23867659626419235,4.686633825302124
0.24526919790013424,4.689414978027344
0.2491759247955072,4.692191123962402
0.24990843608838964,4.694937467575073
0.2398974484189964,4.697746753692627
0.2491759247955072,4.700517177581787
0.24282749359052613,4.703289747238159
0.24722256134782072,4.706029415130615
0.2511292882431937,4.708756446838379
0.2491759247955072,4.711565732955933
0.23672323281650587,4.714298248291016
0.24526919790013424,4.717034101486206
0.24062995971187884,4.719835042953491
0.2420949822976437,4.722574472427368
0.2469783909168599,4.725313663482666
0.24795507264070316,4.728095769882202
0.235258210230741,4.730878591537476
0.24624587962397748,4.733617305755615
0.24062995971187884,4.736400127410889
0.2440483457453302,4.739142417907715
0.25039677695031126,4.741934299468994
0.2511292882431937,4.744728326797485
0.23818825540227073,4.747469902038574
0.24795507264070316,4.7502522468566895
0.24062995971187884,4.753030061721802
0.24258332315956532,4.7557666301727295
0.25015260651935045,4.758491039276123
0.25210596996703694,4.761294841766357
0.24038578928091803,4.7640321254730225
0.25283848125991937,4.7667622566223145
0.24624587962397748,4.769530773162842
0.24722256134782072,4.772301912307739
0.25503601513856666,4.775037050247192
0.2560126968624099,4.777803659439087
0.2423391527286045,4.780570030212402
0.2511292882431937,4.783348560333252
0.24331583445244775,4.786082029342651
0.244292516176291,4.788818597793579
0.2516176291051153,4.791621685028076
0.2538151629837626,4.794360876083374
0.24014161884995722,4.7970898151397705
0.2518617995360761,4.7998998165130615
0.2445366866072518,4.802641153335571
0.24526919790013424,4.80538010597229
0.25503601513856666,4.808151960372925
0.2557685264314491,4.81091570854187
0.24258332315956532,4.81364893913269
0.2535709925528018,4.816426038742065
0.24526919790013424,4.819167375564575
0.24624587962397748,4.821934223175049
0.2582102307410572,4.824709177017212
0.25967525332682206,4.8274452686309814
0.24746673177878153,4.830213308334351
0.25747771944817477,4.832988023757935
0.2491759247955072,4.835728645324707
0.2491759247955072,4.838470458984375
0.26138444634354774,4.841280698776245
0.26162861677450855,4.844023942947388
0.24966426565742883,4.846764802932739
0.2579660603100964,4.8495402336120605
0.25015260651935045,4.852332830429077
0.2489317543645464,4.8550920486450195
0.2579660603100964,4.8578479290008545
0.25943108289586125,4.860615491867065
0.24819924307166397,4.8633949756622314
0.25698937858625315,4.866129159927368
0.2518617995360761,4.868863105773926
0.24966426565742883,4.871672868728638
0.2608961054816261,4.874412536621094
0.25967525332682206,4.877147197723389
0.2491759247955072,4.879956960678101
0.25479184470760585,4.882694959640503
0.24844341350262478,4.885431289672852
0.24819924307166397,4.888242483139038
0.258454401172018,4.891012668609619
0.25943108289586125,4.893741607666016
0.24942009522646802,4.8965208530426025
0.2535709925528018,4.899255990982056
0.25015260651935045,4.902026891708374
0.24746673177878153,4.904811382293701
0.2577218898791356,4.9075539112091064
0.2562568672933707,4.910321474075317
0.2469783909168599,4.913102149963379
0.2518617995360761,4.915839195251465
0.2491759247955072,4.9185791015625
0.24502502746917343,4.92139458656311
0.2552801855695275,4.924132823944092
0.25430350384568423,4.926863431930542
0.2469783909168599,4.929644346237183
0.2511292882431937,4.932405233383179
0.24942009522646802,4.935163974761963
0.24526919790013424,4.937925338745117
0.2560126968624099,4.940687894821167
0.2518617995360761,4.943471193313599
0.2464900500549383,4.946206331253052
0.2489317543645464,4.9489428997039795
0.2469783909168599,4.95176362991333
0.24307166402148694,4.954511404037476
0.2530826516908802,4.957245826721191
0.2518617995360761,4.960052251815796
0.24624587962397748,4.962786436080933
0.24819924307166397,4.965521574020386
0.24624587962397748,4.968307018280029
0.244292516176291,4.9711010456085205
0.25235014039799775,4.9738383293151855
0.25015260651935045,4.97661018371582
0.24502502746917343,4.9793477058410645
0.24600170919301667,4.982122898101807
0.24819924307166397,4.9848997592926025
0.2418508118666829,4.9876463413238525
0.2508851178122329,4.9904258251190186
0.25015260651935045,4.993195533752441
0.244292516176291,4.995936155319214
0.24551336833109505,4.998680353164673
0.24771090220974235,5.0014917850494385
0.24282749359052613,5.004230976104736
0.2560126968624099,5.006966829299927
0.25430350384568423,5.009733200073242
0.25039677695031126,5.012490510940552
0.24942009522646802,5.015263557434082
0.2508851178122329,5.0180511474609375
0.24624587962397748,5.020906925201416
0.2530826516908802,5.023690462112427
0.2513734586741545,5.026429891586304
0.25015260651935045,5.02915620803833
0.24819924307166397,5.031965255737305
0.24990843608838964,5.034715175628662
0.24771090220974235,5.0377631187438965
0.25503601513856666,5.040582656860352
0.2538151629837626,5.043327331542969
0.24844341350262478,5.046061992645264
0.2491759247955072,5.04888129234314
0.2491759247955072,5.051669120788574
0.24478085703821262,5.054407596588135
0.25430350384568423,5.057183265686035
0.2530826516908802,5.060039043426514
0.24795507264070316,5.062780857086182
0.2491759247955072,5.06556510925293
0.24844341350262478,5.068303346633911
0.24526919790013424,5.071096658706665
0.2557685264314491,5.0738606452941895
0.25503601513856666,5.0765907764434814
0.25235014039799775,5.079360485076904
0.25259431082895856,5.08212947845459
0.25235014039799775,5.084863662719727
0.2469783909168599,5.087646007537842
0.25454767427664504,5.09043288230896
0.25503601513856666,5.093167543411255
0.2511292882431937,5.095937728881836
0.25039677695031126,5.098665714263916
0.2518617995360761,5.101437330245972
0.24746673177878153,5.104223966598511
0.2540593334147234,5.106954336166382
0.2538151629837626,5.109690189361572
0.24990843608838964,5.11249566078186
0.2464900500549383,5.115231513977051
0.2489317543645464,5.117966651916504
0.24819924307166397,5.1207756996154785
0.2560126968624099,5.12351131439209
0.25503601513856666,5.126245737075806
0.25454767427664504,5.1290178298950195
0.24990843608838964,5.131787538528442
0.2557685264314491,5.134527683258057
0.25015260651935045,5.137295961380005
0.25674520815529234,5.1400673389434814
0.25723354901721396,5.142810106277466
0.2535709925528018,5.145611763000488
0.24819924307166397,5.148357391357422
0.2530826516908802,5.151139974594116
0.24746673177878153,5.153903007507324
0.25430350384568423,5.156636953353882
0.2560126968624099,5.159415006637573
0.2518617995360761,5.162183523178101
0.24575753876205586,5.164927244186401
0.2530826516908802,5.167697906494141
0.24771090220974235,5.170472860336304
0.2540593334147234,5.173206329345703
0.2562568672933707,5.175979375839233
0.2540593334147234,5.178706407546997
0.2469783909168599,5.181472539901733
0.2562568672933707,5.1842451095581055
0.24966426565742883,5.186985969543457
0.2530826516908802,5.18971586227417
0.25747771944817477,5.1925177574157715
0.2560126968624099,5.195250749588013
0.2469783909168599,5.197989463806152
0.2562568672933707,5.200793027877808
0.24990843608838964,5.203536510467529
0.2530826516908802,5.206268310546875
0.258454401172018,5.209045886993408
0.25747771944817477,5.2118353843688965
0.24575753876205586,5.214576721191406
0.25698937858625315,5.217355489730835
0.25015260651935045,5.220116376876831
0.2516176291051153,5.222852945327759
0.25918691246490044,5.22563362121582
0.25967525332682206,5.22836971282959
0.2469783909168599,5.23116135597229
0.2577218898791356,5.233910322189331
0.25015260651935045,5.236638307571411
0.24990843608838964,5.239416837692261
0.2562568672933707,5.242189884185791
0.25503601513856666,5.244928359985352
0.24038578928091803,5.247714281082153
0.25210596996703694,5.250484228134155
0.24600170919301667,5.25322699546814
0.2464900500549383,5.256005525588989
0.2518617995360761,5.258741855621338
0.2535709925528018,5.261502504348755
0.24014161884995722,5.264288663864136
0.2535709925528018,5.267024755477905
0.24624587962397748,5.2698657512664795
0.24624587962397748,5.272647857666016
0.2530826516908802,5.2753822803497314
0.2535709925528018,5.278112888336182
0.23818825540227073,5.280925512313843
0.24990843608838964,5.283669948577881
0.2423391527286045,5.286404371261597
0.2423391527286045,5.289184093475342
0.25210596996703694,5.291942119598389
0.2530826516908802,5.294677257537842
0.23818825540227073,5.297457456588745
0.2518617995360761,5.3002214431762695
0.244292516176291,5.30295729637146
0.24502502746917343,5.305738687515259
0.2577218898791356,5.308476686477661
0.2540593334147234,5.311278343200684
0.2398974484189964,5.3140130043029785
0.2511292882431937,5.316745758056641
0.24258332315956532,5.319530487060547
0.24014161884995722,5.3223042488098145
0.25039677695031126,5.325035333633423
0.2508851178122329,5.327809810638428
0.23843242583323154,5.330603361129761
0.24966426565742883,5.3333420753479
0.24258332315956532,5.336118459701538
0.2423391527286045,5.3388566970825195
0.2535709925528018,5.3416221141815186
0.253326822121841,5.344410181045532
0.24111830057380046,5.347158670425415
0.2491759247955072,5.349924087524414
0.2423391527286045,5.352703332901001
0.24087413014283965,5.355442762374878
0.25235014039799775,5.358175039291382
0.2516176291051153,5.3609840869903564
0.23892076669515316,5.363722562789917
0.24771090220974235,5.366459608078003
0.2418508118666829,5.369237184524536
0.2423391527286045,5.37200927734375
0.2540593334147234,5.374739646911621
0.25503601513856666,5.377507925033569
0.24331583445244775,5.38027024269104
0.2508851178122329,5.383000373840332
0.24526919790013424,5.385773658752441
0.24356000488340857,5.3885133266448975
0.2562568672933707,5.391310214996338
0.2555243560004883,5.3940465450286865
0.2440483457453302,5.396784067153931
0.25235014039799775,5.399603366851807
0.24795507264070316,5.4023756980896
0.24575753876205586,5.405110120773315
0.2560126968624099,5.407876968383789
0.2557685264314491,5.410649061203003
0.24600170919301667,5.413400888442993
0.2516176291051153,5.416173696517944
0.24771090220974235,5.418909072875977
0.24526919790013424,5.4216718673706055
0.2555243560004883,5.424447536468506
0.25479184470760585,5.427175998687744
0.24526919790013424,5.430102825164795
0.24966426565742883,5.4340291023254395
0.24331583445244775,5.4367759227752686
0.2464900500549383,5.439552307128906
0.2530826516908802,5.442584753036499
0.2530826516908802,5.445329189300537
0.24258332315956532,5.448111295700073
0.25259431082895856,5.450908899307251
0.24575753876205586,5.453932046890259
0.2511292882431937,5.456714153289795
0.2555243560004883,5.459450960159302
0.2518617995360761,5.462221145629883
0.24624587962397748,5.4652650356292725
0.2516176291051153,5.467992067337036
0.2469783909168599,5.47076153755188
0.2535709925528018,5.47380256652832
0.2557685264314491,5.476541757583618
0.2511292882431937,5.479310750961304
0.24722256134782072,5.482078790664673
0.25283848125991937,5.485079526901245
0.24722256134782072,5.4878623485565186
0.25747771944817477,5.490649938583374
0.25747771944817477,5.493390083312988
0.2511292882431937,5.496443510055542
0.253326822121841,5.4991843700408936
0.2530826516908802,5.501948356628418
0.24966426565742883,5.504993915557861
0.26138444634354774,5.507732629776001
0.2586985716029788,5.510518312454224
0.25039677695031126,5.513290882110596
0.2538151629837626,5.51630163192749
0.24990843608838964,5.519049882888794
0.24771090220974235,5.521860837936401
0.2577218898791356,5.524593830108643
0.2577218898791356,5.527644634246826
0.24575753876205586,5.530424356460571
0.2535709925528018,5.533159017562866
0.24819924307166397,5.536191463470459
0.2469783909168599,5.5392279624938965
0.2577218898791356,5.542004346847534
0.25747771944817477,5.5447893142700195
0.24307166402148694,5.547824382781982
0.2530826516908802,5.550607204437256
0.24575753876205586,5.553394556045532
0.2469783909168599,5.556135177612305
0.2560126968624099,5.559152603149414
0.2555243560004883,5.561939716339111
0.24307166402148694,5.564675331115723
0.25039677695031126,5.5676960945129395
0.24258332315956532,5.570507764816284
0.24624587962397748,5.573246955871582
0.24990843608838964,5.576028823852539
0.2508851178122329,5.579035520553589
0.2420949822976437,5.581809759140015
0.24819924307166397,5.584595441818237
0.2440483457453302,5.587331056594849
0.2511292882431937,5.590582370758057
0.25210596996703694,5.5933678150177
0.24624587962397748,5.596100330352783
0.2440483457453302,5.599128246307373
0.24526919790013424,5.601925611495972
0.24136247100476127,5.604666709899902
0.24966426565742883,5.6074538230896
0.24746673177878153,5.610502004623413
0.24038578928091803,5.6132423877716064
0.2440483457453302,5.61602258682251
0.2420949822976437,5.618759393692017
0.2420949822976437,5.621800184249878
0.25454767427664504,5.624579429626465
0.2538151629837626,5.627320289611816
0.2440483457453302,5.630358695983887
0.24990843608838964,5.6331398487091064
0.2440483457453302,5.635882377624512
0.2423391527286045,5.63862156867981
0.25235014039799775,5.641707181930542
0.25283848125991937,5.644443511962891
0.24038578928091803,5.647233724594116
0.24844341350262478,5.650022029876709
0.24136247100476127,5.653042554855347
0.2423391527286045,5.655847072601318
0.2538151629837626,5.658587694168091
0.2538151629837626,5.661626100540161
0.23892076669515316,5.664406061172485
0.25039677695031126,5.667135238647461
0.24307166402148694,5.669903993606567
0.24331583445244775,5.672950506210327
0.2540593334147234,5.675684213638306
0.2560126968624099,5.678418874740601
0.24258332315956532,5.681230068206787
0.24990843608838964,5.684252738952637
0.2440483457453302,5.686997890472412
0.2469783909168599,5.689815044403076
0.2535709925528018,5.692829608917236
0.2508851178122329,5.695608377456665
0.24111830057380046,5.6983466148376465
0.24819924307166397,5.701117277145386
0.2423391527286045,5.704160928726196
0.24746673177878153,5.706901550292969
0.24844341350262478,5.709645748138428
0.24795507264070316,5.712460994720459
0.24258332315956532,5.715476989746094
0.24624587962397748,5.718224287033081
0.2423391527286045,5.721041917800903
0.24966426565742883,5.724048137664795
0.2518617995360761,5.726795673370361
0.2469783909168599,5.7295753955841064
0.24526919790013424,5.732343673706055
0.2469783909168599,5.735396146774292
0.24331583445244775,5.738140821456909
0.25283848125991937,5.740917921066284
0.2518617995360761,5.7436933517456055
0.24380417531436938,5.746726036071777
0.24624587962397748,5.749478816986084
0.2445366866072518,5.752315998077393
0.2420949822976437,5.755326509475708
0.25503601513856666,5.7580726146698
0.25503601513856666,5.760920763015747
0.24478085703821262,5.763664722442627
0.2516176291051153,5.766675233840942
0.24600170919301667,5.769456386566162
0.24258332315956532,5.7722272872924805
0.2535709925528018,5.774960279464722
0.2530826516908802,5.778009653091431
0.23940910755707479,5.780785083770752
0.25039677695031126,5.783558130264282
0.24307166402148694,5.7864320278167725
0.24307166402148694,5.789308547973633
0.25479184470760585,5.792118072509766
0.25479184470760585,5.794851779937744
0.24111830057380046,5.797862768173218
0.2518617995360761,5.8006751537323
0.2445366866072518,5.803416967391968
0.24600170919301667,5.806159019470215
0.2540593334147234,5.809194326400757
0.2530826516908802,5.811994791030884
0.2398974484189964,5.814733028411865
0.24819924307166397,5.81751561164856
0.24258332315956532,5.820563554763794
0.2464900500549383,5.823348522186279
0.25235014039799775,5.8260884284973145
0.25235014039799775,5.829099655151367
0.24136247100476127,5.831915616989136
0.24966426565742883,5.834659814834595
0.24380417531436938,5.837394714355469
0.24990843608838964,5.84047794342041
0.25015260651935045,5.843203544616699
0.24575753876205586,5.845943450927734
0.24038578928091803,5.848738193511963
0.24258332315956532,5.851790189743042
0.23818825540227073,5.8545308113098145
0.2489317543645464,5.8573157787323
0.24966426565742883,5.860351085662842
0.2423391527286045,5.8631110191345215
0.2440483457453302,5.865870952606201
0.24282749359052613,5.868608474731445
0.23428152850689776,5.871692895889282
0.24136247100476127,5.874437570571899
0.2423391527286045,5.877173900604248
0.23623489195458425,5.879983901977539
0.2398974484189964,5.883007526397705
0.23696740324746668,5.885746002197266
0.23452569893785857,5.888805150985718
0.24746673177878153,5.892028093338013
0.24819924307166397,5.895966291427612
0.24038578928091803,5.899333238601685
0.24111830057380046,5.902560234069824
0.23843242583323154,5.905863046646118
0.25283848125991937,5.909008502960205
0.2508851178122329,5.912270784378052
0.23940910755707479,5.915242671966553
0.24722256134782072,5.918299198150635
0.24331583445244775,5.921921730041504
0.2538151629837626,5.9250030517578125
0.25479184470760585,5.928199529647827
0.2418508118666829,5.931856632232666
0.24624587962397748,5.935098886489868
0.2440483457453302,5.938241720199585
0.25674520815529234,5.941789627075195
0.25918691246490044,5.945013999938965
0.24771090220974235,5.948077440261841
0.25723354901721396,5.951501846313477
0.24990843608838964,5.954644441604614
0.2630936393602734,5.957739353179932
0.2601635941887437,5.961249113082886
0.24771090220974235,5.964148998260498
0.26407032108411665,5.967207193374634
0.25698937858625315,5.970905303955078
0.2626052984983518,5.973746061325073
0.2648028323769991,5.976584196090698
0.25674520815529234,5.9799416065216064
0.2557685264314491,5.9834816455841064
0.2491759247955072,5.986281633377075
0.2440483457453302,5.989120006561279
0.2599194237577829,5.992772340774536
0.2652911732389207,5.995901584625244
0.25967525332682206,5.998934268951416
0.2648028323769991,6.002597808837891
0.26187278720546936,6.005707025527954
0.28677817116347204,6.008868217468262
0.2809180808204126,6.012548446655273
0.2694420705652545,6.015749454498291
0.27066292272005854,6.01884651184082
0.2565010377243315,6.022435665130615
0.24990843608838964,6.025426626205444
0.25430350384568423,6.02862811088562
0.244292516176291,6.03227972984314
0.2518617995360761,6.035179615020752
0.25015260651935045,6.038565397262573
0.2645586619460383,6.041980743408203
0.2648028323769991,6.0450568199157715
0.24990843608838964,6.048200607299805
0.25967525332682206,6.051502466201782
0.2577218898791356,6.054435968399048
0.2694420705652545,6.057726144790649
0.2691979001342937,6.061205863952637
0.26187278720546936,6.064054012298584
0.2696862409962153,6.066991806030273
0.26358198022219503,6.070414781570435
0.27359296789158827,6.073569297790527
0.2721279453058234,6.076608180999756
0.27041875228909773,6.080066919326782
0.2626052984983518,6.084517240524292
0.25430350384568423,6.087768316268921
0.24575753876205586,6.090921640396118
0.2464900500549383,6.0940892696380615
0.24111830057380046,6.097292900085449
0.24722256134782072,6.100507736206055
0.2398974484189964,6.103553295135498
0.2518617995360761,6.106688499450684
0.2652911732389207,6.10986852645874
0.26602368453180314,6.112812042236328
0.2679770479794896,6.115873575210571
0.276523013063118,6.1188178062438965
0.27041875228909773,6.1219704151153564
0.2840922964229031,6.124992847442627
0.28213893297521664,6.1278908252716064
0.26870955927237206,6.131148099899292
0.2770113539250396,6.134204149246216
0.26822121841045043,6.1372363567352295
0.2679770479794896,6.140161037445068
0.272616286167745,6.14320182800293
0.267488707117568,6.1462721824646
0.26382615065315584,6.149367809295654
0.2655353436698815,6.152645111083984
0.2582102307410572,6.1557936668396
0.26895372970333287,6.158990144729614
0.26846538884141125,6.16230320930481
0.2562568672933707,6.165374517440796
0.25967525332682206,6.168647527694702
0.2586985716029788,6.1718363761901855
0.2767671834940788,6.174978971481323
0.2784763765108045,6.177955627441406
0.2718837748748626,6.181222438812256
0.2784763765108045,6.184428453445435
0.272616286167745,6.187273263931274
0.2840922964229031,6.190542697906494
0.2887315346111585,6.193469762802124
0.2980100109876693,6.196241855621338
0.290684898058845,6.198979616165161
0.28946404590404096,6.201821327209473
0.2794530582346477,6.204557657241821
0.276523013063118,6.207329273223877
0.27530216090831394,6.2101099491119385
0.2743254791844707,6.212844610214233
0.26675619582468557,6.215625286102295
0.2691979001342937,6.218362331390381
0.2716396044439018,6.22115159034729
0.2784763765108045,6.223928928375244
0.27749969478696124,6.2266669273376465
0.2770113539250396,6.22939920425415
0.2716396044439018,6.232206583023071
0.2760346722011964,6.234937906265259
0.27041875228909773,6.23767352104187
0.2716396044439018,6.240495443344116
0.2696862409962153,6.243236780166626
0.2699304114271761,6.245972633361816
0.26138444634354774,6.248743772506714
0.2655353436698815,6.251546621322632
0.2633378097912342,6.2542901039123535
0.2772555243560004,6.257075071334839
0.28238310340617745,6.259849309921265
0.2806739103894518,6.262589693069458
0.27505799047735313,6.265363931655884
0.2794530582346477,6.268090486526489
0.2738371383225491,6.270865201950073
0.27994139909656934,6.27363920211792
0.2853131485777072,6.276376962661743
0.27749969478696124,6.279129981994629
0.2655353436698815,6.281939506530762
0.276523013063118,6.2846715450286865
0.26870955927237206,6.287446022033691
0.2655353436698815,6.290236949920654
0.2699304114271761,6.292970180511475
0.2652911732389207,6.295746564865112
0.25894274203393963,6.298478841781616
0.26846538884141125,6.301250457763672
0.2628494689293126,6.304024934768677
0.25967525332682206,6.306757926940918
0.2608961054816261,6.309498071670532
0.2586985716029788,6.3124189376831055
0.24844341350262478,6.315159559249878
0.2555243560004883,6.317896604537964
0.2538151629837626,6.320713758468628
0.2814064216823342,6.323447227478027
0.28946404590404096,6.326177358627319
0.2838481259919423,6.3289525508880615
0.28042973995849096,6.33172082901001
0.30045171529727743,6.33445405960083
0.2933707727994139,6.337232828140259
0.2992308631424734,6.340007781982422
0.30973019167378824,6.342742443084717
0.30045171529727743,6.345520734786987
0.2909290684898058,6.348257541656494
0.3136369185691612,6.35103702545166
0.3046026126236112,6.353828191757202
0.29849835184959095,6.356563568115234
0.31436942986204364,6.359344244003296
0.30509095348553283,6.362136125564575
0.290684898058845,6.364873647689819
0.31021853253570986,6.367651462554932
0.30362593089976797,6.370428085327148
0.30973019167378824,6.373165845870972
0.3273104627029666,6.375947713851929
0.3251129288243193,6.378692388534546
0.3116835551214747,6.381465196609497
0.3182761567574166,6.384246587753296
0.3085093395189842,6.386988162994385
0.31461360029300445,6.389724016189575
0.3253570992552801,6.3925299644470215
0.33121718959833957,6.395272731781006
0.3224270540837504,6.398008108139038
0.3226712245147112,6.400816440582275
0.31656696374069093,6.403545618057251
0.3182761567574166,6.4062745571136475
0.32193871322182877,6.409049987792969
0.31949700891222066,6.411832571029663
0.304846783054572,6.414571285247803
0.3202295202051031,6.417357921600342
0.3136369185691612,6.420167922973633
0.3292638261506531,6.423008680343628
0.3395189842510071,6.425792932510376
0.34415822243926253,6.428533554077148
0.33805396166524226,6.43135404586792
0.3622268343303625,6.4340949058532715
0.35343669881577333,6.436830997467041
0.3529483579538517,6.439610004425049
0.3614943230374801,6.442382574081421
0.3497741423513612,6.4451212882995605
0.3336588939079477,6.4478981494903564
0.3414723476986936,6.450672388076782
0.33097301916737876,6.453414440155029
0.32608961054816255,6.4561989307403564
0.3390306433890855,6.458934545516968
0.3317055304602612,6.461710214614868
0.31436942986204364,6.46449089050293
0.32633378097912336,6.467231750488281
0.31949700891222066,6.470019102096558
0.3253570992552801,6.472801685333252
0.3368331095104382,6.475544214248657
0.3407398364058112,6.478276491165161
0.3339030643389085,6.481188058853149
0.32413624710047606,6.483925819396973
0.3129044072762788,6.4866623878479
0.3016725674520815,6.489438056945801
0.29898669271151257,6.4922168254852295
0.30557929434745446,6.494947195053101
0.2931266023684531,6.4977192878723145
0.2977658405567085,6.500485420227051
0.29141740935172744,6.503255128860474
0.2904407276278842,6.505995035171509
0.2967891588328653,6.508768081665039
0.3019167378830423,6.511580228805542
0.29605664753998284,6.514322280883789
0.29117323892076663,6.517051696777344
0.2811622512513734,6.519856929779053
0.2743254791844707,6.52258825302124
0.2789647173727261,6.525323390960693
0.276523013063118,6.528103351593018
0.26626785496276395,6.53089714050293
0.27359296789158827,6.533628225326538
0.2672445366866072,6.536696672439575
0.2691979001342937,6.539451837539673
0.2860456598705896,6.542226552963257
0.2887315346111585,6.545004606246948
0.2862898303015504,6.547739028930664
0.30533512391649364,6.550505876541138
0.30069588572823824,6.553293466567993
0.2948357953851788,6.556028842926025
0.29410328409229636,6.558767318725586
0.2853131485777072,6.561574459075928
0.28018556952753015,6.564307928085327
0.2767671834940788,6.567057847976685
0.2679770479794896,6.56984281539917
0.2608961054816261,6.572575569152832
0.2833597851300207,6.575349807739258
0.2789647173727261,6.578091144561768
0.272616286167745,6.580855846405029
0.2909290684898058,6.583634853363037
0.28287144426809907,6.586377382278442
0.2679770479794896,6.589113712310791
0.2770113539250396,6.591920614242554
0.2814064216823342,6.594658374786377
0.27359296789158827,6.597392320632935
0.27359296789158827,6.600202560424805
0.26602368453180314,6.602940320968628
0.26162861677450855,6.605677604675293
0.276523013063118,6.6084513664245605
0.271395434012941,6.611225128173828
0.26162861677450855,6.613957166671753
0.26870955927237206,6.616730690002441
0.27310462702966665,6.619464874267578
0.2679770479794896,6.622235536575317
0.27505799047735313,6.6250152587890625
0.2743254791844707,6.627749681472778
0.2633378097912342,6.630718946456909
0.2579660603100964,6.633490800857544
0.2633378097912342,6.636221170425415
0.267488707117568,6.638957977294922
0.25747771944817477,6.641756772994995
0.25479184470760585,6.644489288330078
0.2423391527286045,6.64725923538208
0.25943108289586125,6.650049209594727
0.26431449151507747,6.652790307998657
0.2586985716029788,6.655570030212402
0.2811622512513734,6.6583075523376465
0.28238310340617745,6.661065578460693
0.2740813087535099,6.663836240768433
0.28921987547308015,6.66656231880188
0.30118422659015986,6.669293165206909
0.30362593089976797,6.672101974487305
0.3202295202051031,6.674842357635498
0.31436942986204364,6.67757773399353
0.3038701013307288,6.680409908294678
0.304846783054572,6.683146238327026
0.3016725674520815,6.685879230499268
0.3016725674520815,6.688653469085693
0.3202295202051031,6.691422462463379
0.3202295202051031,6.694159984588623
0.3187644976193382,6.696935653686523
0.3246245879623977,6.699674129486084
0.3275546331339274,6.702440977096558
0.3341472347698693,6.705209732055664
0.3592967891588328,6.7079455852508545
0.359052618727872,6.71071720123291
0.3524600170919301,6.713500022888184
0.3475766084727139,6.716240167617798
0.350018312782322,6.718977689743042
0.34659992674887063,6.721794843673706
0.3497741423513612,6.724530458450317
0.3458674154559882,6.727384328842163
0.3485532901965571,6.73016095161438
0.3429373702844585,6.73289680480957
0.3382981320962031,6.735679388046265
0.33585642778659497,6.738420248031616
0.3485532901965571,6.741207599639893
0.34659992674887063,6.743981122970581
0.3363447686485166,6.746715307235718
0.3343914052008301,6.749451398849487
0.3434257111463801,6.7522666454315186
0.33512391649371254,6.755023241043091
0.3544133805396166,6.757765769958496
0.3712611402759125,6.76058554649353
0.3556342326944206,6.763322353363037
0.3556342326944206,6.766052007675171
0.3710169698449517,6.768834829330444
0.36955194725918683,6.771633148193359
0.392503967769503,6.774371862411499
0.3937248199243071,6.777147054672241
0.410572579660603,6.779908895492554
0.4191185447442314,6.782641649246216
0.4176535221584665,6.78542160987854
0.41887437431327057,6.788158655166626
0.4261994872420949,6.790937185287476
0.4218044194848003,6.793719530105591
0.4083750457819557,6.796449899673462
0.40031742156024896,6.7992260456085205
0.4086192162129165,6.801997184753418
0.39567818337199356,6.804734706878662
0.3961665242339152,6.807509899139404
0.39274813820046384,6.810276985168457
0.38176046880722736,6.8130199909210205
0.3690636063972652,6.815808534622192
0.37199365156879494,6.818547964096069
0.3624710047613233,6.821317434310913
0.3624710047613233,6.82409405708313
0.3668660725186179,6.826834678649902
0.3575875961421071,6.829571008682251
0.34684409717983145,6.8323750495910645
0.35392503967769495,6.835107088088989
0.34196068856061523,6.837840795516968
0.3478207789036747,6.840646505355835
0.35368086924673414,6.84339165687561
0.34659992674887063,6.8461220264434814
0.33512391649371254,6.8488922119140625
0.3361005982175558,6.851656198501587
0.3368331095104382,6.854399919509888
0.32340373580759363,6.8571860790252686
0.31656696374069093,6.859989166259766
0.31949700891222066,6.862722158432007
0.3182761567574166,6.865498304367065
0.3321938713221828,6.868237495422363
0.32901965571969227,6.8700339794158936
0.32901965571969227,6.871423006057739
0.3277988035648882,6.872790575027466
0.3343914052008301,6.874164581298828
0.3321938713221828,6.875531435012817
0.331949700891222,6.876900672912598
0.33341472347698686,6.878269195556641
0.32633378097912336,6.879658937454224
0.3202295202051031,6.881045341491699
0.32413624710047606,6.882418155670166
0.32633378097912336,6.883788585662842
0.32120620192894633,6.885156869888306
0.3187644976193382,6.886523962020874
0.3221828836527896,6.8879148960113525
0.3207178610670247,6.889282703399658
0.32608961054816255,6.890683650970459
0.3221828836527896,6.892054080963135
0.32340373580759363,6.893422603607178
0.32877548528873146,6.894788026809692
0.32389207666951525,6.896177768707275
0.3153461115858869,6.89754581451416
0.3231595653766328,6.898914813995361
0.32633378097912336,6.900299787521362
0.32657795141008417,6.901669263839722
0.3185203271883774,6.903034925460815
0.3221828836527896,6.904422998428345
0.3204736906360639,6.905789852142334
0.3251129288243193,6.907159805297852
0.32438041753143687,6.908529043197632
0.3202295202051031,6.90991473197937
0.3221828836527896,6.911302804946899
0.31461360029300445,6.912669658660889
0.30728848736418013,6.914038419723511
0.30777682822610175,6.9154064655303955
0.3116835551214747,6.916773080825806
0.3068001465022585,6.918140649795532
0.30289341960688554,6.919528961181641
0.3038701013307288,6.920914649963379
0.3065559760712977,6.9222822189331055
0.3185203271883774,6.923651695251465
0.3251129288243193,6.92501974105835
0.32145037235990714,6.926384210586548
0.3207178610670247,6.927772760391235
0.31436942986204364,6.929142951965332
0.3085093395189842,6.9305315017700195
0.308753509949945,6.9319000244140625
0.31436942986204364,6.933267116546631
0.30973019167378824,6.934633493423462
0.3085093395189842,6.93603777885437
0.3024050787449639,6.937406539916992
0.30069588572823824,6.938773155212402
0.3116835551214747,6.940155982971191
0.3231595653766328,6.941527605056763
0.3207178610670247,6.9428956508636475
0.3273104627029666,6.944286584854126
0.32657795141008417,6.945652008056641
0.31925283848125985,6.947020530700684
0.3163227933097301,6.948390960693359
0.32340373580759363,6.9497716426849365
0.3231595653766328,6.951152563095093
0.31949700891222066,6.952529430389404
0.3187644976193382,6.953899621963501
0.3221828836527896,6.95527458190918
0.32657795141008417,6.956645727157593
0.3324380417531436,6.958013534545898
0.32584544011720173,6.95940637588501
0.3256012696862409,6.960791826248169
0.3202295202051031,6.9621617794036865
0.3136369185691612,6.963526248931885
0.3094860212428274,6.964893579483032
0.31266023684531796,6.966258764266968
0.30777682822610175,6.967648029327393
0.304846783054572,6.969016075134277
0.2977658405567085,6.970583438873291
0.28751068245635447,6.973318338394165
0.28946404590404096,6.976091146469116
0.28751068245635447,6.97882866859436
0.2718837748748626,6.981599569320679
0.2784763765108045,6.984375715255737
0.2694420705652545,6.987115144729614
0.27041875228909773,6.989893436431885
0.28726651202539366,6.992671012878418
0.2811622512513734,6.995412349700928
0.26675619582468557,6.998140811920166
0.27554633133927475,7.000946998596191
0.2679770479794896,7.003679275512695
0.2699304114271761,7.006411552429199
0.2772555243560004,7.009189605712891
0.27334879746062746,7.011977195739746
0.26138444634354774,7.014712572097778
0.2652911732389207,7.017482042312622
0.2562568672933707,7.0202507972717285
0.2608961054816261,7.0229785442352295
0.27066292272005854,7.025753498077393
0.2762788426321572,7.028488636016846
0.267488707117568,7.031292200088501
0.271395434012941,7.034030437469482
0.2626052984983518,7.037060022354126
0.26187278720546936,7.039872407913208
0.2655353436698815,7.042613744735718
0.267488707117568,7.045350551605225
0.2538151629837626,7.048124074935913
0.2655353436698815,7.050895690917969
0.2586985716029788,7.053630590438843
0.2652911732389207,7.056419849395752
0.2745696496154315,7.059157609939575
0.27554633133927475,7.0619285106658936
0.2633378097912342,7.064708948135376
0.27115126358198016,7.067451000213623
0.2626052984983518,7.070218563079834
0.267488707117568,7.072995662689209
0.28433646685386393,7.075732469558716
0.28213893297521664,7.078465938568115
0.2696862409962153,7.081273317337036
0.276523013063118,7.084010362625122
0.26870955927237206,7.086740970611572
0.2677328775485288,7.0895094871521
0.276523013063118,7.092280387878418
0.2723721157367842,7.095015525817871
0.2601635941887437,7.097790479660034
0.26138444634354774,7.100557327270508
0.25503601513856666,7.103334903717041
0.2420949822976437,7.106077432632446
0.2469783909168599,7.108847618103027
0.2423391527286045,7.112960338592529
0.2372115736784275,7.115709543228149
0.24819924307166397,7.118448734283447
0.24600170919301667,7.1213133335113525
0.2518617995360761,7.124406099319458
0.2530826516908802,7.127182722091675
0.2518617995360761,7.129987001419067
0.24502502746917343,7.133002519607544
0.2445366866072518,7.135788917541504
0.24014161884995722,7.138535737991333
0.24136247100476127,7.141299486160278
0.24062995971187884,7.1443352699279785
0.23623489195458425,7.1470818519592285
0.23599072152362344,7.149844408035278
0.23550238066170182,7.152625799179077
0.23354901721401533,7.155644655227661
0.24282749359052613,7.158391952514648
0.24087413014283965,7.161214351654053
0.2374557441093883,7.164221525192261
0.24380417531436938,7.166969060897827
0.2423391527286045,7.1697471141815186
0.2423391527286045,7.1726062297821045
0.25698937858625315,7.175657510757446
0.25235014039799775,7.178400278091431
0.24526919790013424,7.181175470352173
0.26358198022219503,7.183967351913452
0.262361128067391,7.186976909637451
0.2599194237577829,7.189718723297119
0.27041875228909773,7.192558765411377
0.2721279453058234,7.195647478103638
0.25698937858625315,7.198390245437622
0.2691979001342937,7.20120096206665
0.2608961054816261,7.203938722610474
0.2562568672933707,7.206955432891846
0.26870955927237206,7.209735870361328
0.26602368453180314,7.21250319480896
0.25698937858625315,7.215276002883911
0.2677328775485288,7.2182934284210205
0.25894274203393963,7.2210612297058105
0.2652911732389207,7.223838806152344
0.27823220607984367,7.22684383392334
0.27579050177023556,7.229591608047485
0.2648028323769991,7.232399225234985
0.27554633133927475,7.235137701034546
0.26846538884141125,7.23815131187439
0.2740813087535099,7.240976095199585
0.2784763765108045,7.243714332580566
0.27554633133927475,7.2464516162872314
0.2655353436698815,7.2494847774505615
0.26577951410084233,7.2522852420806885
0.2626052984983518,7.2550249099731445
0.2784763765108045,7.258081436157227
0.2836039555609815,7.260876178741455
0.2811622512513734,7.263663291931152
0.27774386521792205,7.266398191452026
0.28042973995849096,7.269407510757446
0.272616286167745,7.27230167388916
0.2862898303015504,7.275042533874512
0.2862898303015504,7.2777793407440186
0.28702234159443285,7.280867576599121
0.2921499206446099,7.283612251281738
0.28897570504211934,7.286358594894409
0.28702234159443285,7.289398908615112
0.30777682822610175,7.292185068130493
0.30753265779514094,7.294934272766113
0.29825418141863014,7.2977135181427
0.3014283970211207,7.300755500793457
0.29581247710902203,7.303539991378784
0.2948357953851788,7.306281566619873
0.3063118056403369,7.3090126514434814
0.30313759003784635,7.312091827392578
0.2899523867659626,7.3148322105407715
0.29605664753998284,7.3175647258758545
0.28726651202539366,7.320640802383423
0.2862898303015504,7.323382616043091
0.30069588572823824,7.326122760772705
0.29874252228055176,7.328906059265137
0.28433646685386393,7.331951856613159
0.28482480771578556,7.334693431854248
0.2770113539250396,7.3374717235565186
0.2743254791844707,7.340240716934204
0.28238310340617745,7.343282699584961
0.2814064216823342,7.346011638641357
0.26651202539372476,7.348744630813599
0.2743254791844707,7.351688861846924
0.26651202539372476,7.35456395149231
0.2723721157367842,7.357306003570557
0.276523013063118,7.360132932662964
0.2716396044439018,7.363149404525757
0.25967525332682206,7.365888595581055
0.27041875228909773,7.368669271469116
0.2645586619460383,7.371471643447876
0.27041875228909773,7.374478816986084
0.27310462702966665,7.377256870269775
0.267488707117568,7.38002872467041
0.258454401172018,7.382762670516968
0.2608961054816261,7.385778903961182
0.25698937858625315,7.388514041900635
0.2633378097912342,7.391324996948242
0.26358198022219503,7.394336700439453
0.2601635941887437,7.397076845169067
0.25479184470760585,7.3998863697052
0.2540593334147234,7.402617454528809
0.2508851178122329,7.4056291580200195
0.26187278720546936,7.408398866653442
0.2601635941887437,7.4111692905426025
0.25210596996703694,7.413894891738892
0.2489317543645464,7.416947841644287
0.24990843608838964,7.419688940048218
0.24307166402148694,7.4224534034729
0.25430350384568423,7.42549467086792
0.2538151629837626,7.428231477737427
0.24551336833109505,7.431005239486694
0.24819924307166397,7.433779954910278
0.24331583445244775,7.436793565750122
0.24258332315956532,7.439575910568237
0.2557685264314491,7.442346811294556
0.25430350384568423,7.4450836181640625
0.24136247100476127,7.448156833648682
0.2489317543645464,7.450939416885376
0.24136247100476127,7.453680753707886
0.2418508118666829,7.456740617752075
0.25479184470760585,7.459496974945068
0.2538151629837626,7.462277412414551
0.24111830057380046,7.4650609493255615
0.24990843608838964,7.468090295791626
0.2418508118666829,7.470904588699341
0.2469783909168599,7.473690509796143
0.2555243560004883,7.476426124572754
0.25283848125991937,7.479487419128418
0.23940910755707479,7.482262134552002
0.24526919790013424,7.485010147094727
0.24014161884995722,7.488047122955322
0.24819924307166397,7.490851879119873
0.2530826516908802,7.4935877323150635
0.2530826516908802,7.496364593505859
0.24136247100476127,7.499378681182861
0.2467342204858991,7.502154111862183
0.2420949822976437,7.504934549331665
0.24795507264070316,7.507671117782593
0.2518617995360761,7.510715961456299
0.2486875839335856,7.513499975204468
0.24062995971187884,7.516244411468506
0.24600170919301667,7.519296407699585
0.24282749359052613,7.522066831588745
0.2511292882431937,7.524801015853882
0.25235014039799775,7.527576923370361
0.24819924307166397,7.530630111694336
0.24526919790013424,7.533371925354004
0.24526919790013424,7.536149978637695
0.24380417531436938,7.539191007614136
0.25723354901721396,7.542250156402588
0.25479184470760585,7.5450286865234375
0.24575753876205586,7.547768831253052
0.24844341350262478,7.5508129596710205
0.24331583445244775,7.553594350814819
0.2440483457453302,7.55633807182312
0.25698937858625315,7.559096336364746
0.25674520815529234,7.562165975570679
0.2445366866072518,7.564908266067505
0.25235014039799775,7.567684888839722
0.24526919790013424,7.570457458496094
0.24990843608838964,7.57348108291626
0.2645586619460383,7.576262950897217
0.26187278720546936,7.578996419906616
0.2491759247955072,7.582043170928955
0.2579660603100964,7.584822416305542
0.25039677695031126,7.587555646896362
0.2557685264314491,7.590336561203003
0.267488707117568,7.593386650085449
0.26602368453180314,7.5961222648620605
0.25235014039799775,7.598863124847412
0.26211695763643017,7.601670265197754
0.2557685264314491,7.604681015014648
0.2577218898791356,7.6074607372283936
0.2650470028079599,7.610259532928467
0.2628494689293126,7.613265514373779
0.25039677695031126,7.616048097610474
0.2562568672933707,7.618782997131348
0.2516176291051153,7.621551990509033
0.25698937858625315,7.624594211578369
0.2608961054816261,7.62733006477356
0.2577218898791356,7.630104064941406
0.2486875839335856,7.632891893386841
0.2506409473812721,7.635909795761108
0.24526919790013424,7.638654470443726
0.2538151629837626,7.641458749771118
0.2557685264314491,7.644469499588013
0.25015260651935045,7.64724063873291
0.24795507264070316,7.650017499923706
0.2489317543645464,7.652755498886108
0.24600170919301667,7.655803918838501
0.2586985716029788,7.658541202545166
0.25747771944817477,7.661320209503174
0.25015260651935045,7.664092540740967
0.2508851178122329,7.667112588882446
0.2491759247955072,7.67008638381958
0.24478085703821262,7.672872543334961
0.2557685264314491,7.675883054733276
0.2530826516908802,7.678624153137207
0.2398974484189964,7.681443214416504
0.24575753876205586,7.684186935424805
0.23916493712611397,7.687237024307251
0.2374557441093883,7.690014362335205
0.24990843608838964,7.692751407623291
0.25015260651935045,7.6955225467681885
0.23623489195458425,7.698527812957764
0.24575753876205586,7.7013099193573
0.23794408497130992,7.704110622406006
0.2420949822976437,7.707123756408691
0.2538151629837626,7.709884166717529
0.2538151629837626,7.712659120559692
0.24038578928091803,7.715401649475098
0.2489317543645464,7.718419790267944
0.24136247100476127,7.721236705780029
0.244292516176291,7.723970651626587
0.2530826516908802,7.726700782775879
0.2518617995360761,7.729742527008057
0.23940910755707479,7.732532739639282
0.24624587962397748,7.735308647155762
0.23916493712611397,7.738322734832764
0.24526919790013424,7.741114616394043
0.25235014039799775,7.743893384933472
0.2535709925528018,7.74663233757019
0.23916493712611397,7.7496514320373535
0.24526919790013424,7.752475023269653
0.2420949822976437,7.755218744277954
0.24990843608838964,7.757957458496094
0.25674520815529234,7.761868715286255
0.24746673177878153,7.7646355628967285
0.2508851178122329,7.767418622970581
0.24551336833109505,7.770195007324219
0.24502502746917343,7.772930860519409
0.2599194237577829,7.7757039070129395
0.2579660603100964,7.778433084487915
0.2491759247955072,7.781197547912598
0.25283848125991937,7.7839720249176025
0.24746673177878153,7.7867090702056885
0.24600170919301667,7.789441823959351
0.2582102307410572,7.792247295379639
0.25674520815529234,7.794983386993408
0.24844341350262478,7.797723770141602
0.25039677695031126,7.800531387329102
0.24819924307166397,7.803265810012817
0.24575753876205586,7.806004047393799
0.2582102307410572,7.808774471282959
0.2560126968624099,7.811533689498901
0.24795507264070316,7.8142619132995605
0.24966426565742883,7.817043781280518
0.2491759247955072,7.819812774658203
0.2469783909168599,7.822552442550659
0.25698937858625315,7.825331211090088
0.2560126968624099,7.828069686889648
0.2506409473812721,7.830866098403931
0.24819924307166397,7.833647012710571
0.2464900500549383,7.836500883102417
0.24307166402148694,7.8392815589904785
0.2540593334147234,7.842044830322266
0.25283848125991937,7.844775438308716
0.24624587962397748,7.847555637359619
0.24624587962397748,7.8503546714782715
0.24600170919301667,7.853105783462524
0.2440483457453302,7.855883598327637
0.2562568672933707,7.858621120452881
0.2552801855695275,7.8613972663879395
0.2491759247955072,7.8641815185546875
0.24819924307166397,7.866919755935669
0.24771090220974235,7.869655132293701
0.2469783909168599,7.872462511062622
0.2577218898791356,7.875200510025024
0.25698937858625315,7.877934455871582
0.2518617995360761,7.880738735198975
0.2491759247955072,7.883476734161377
0.2491759247955072,7.886215686798096
0.24575753876205586,7.889003753662109
0.25698937858625315,7.891770601272583
0.25894274203393963,7.89450216293335
0.25503601513856666,7.897278547286987
0.2511292882431937,7.900042295455933
0.25259431082895856,7.9027745723724365
0.2518617995360761,7.905545473098755
0.26138444634354774,7.908282279968262
0.2626052984983518,7.911068916320801
0.25698937858625315,7.913830280303955
0.2511292882431937,7.91655969619751
0.2582102307410572,7.919330835342407
0.24990843608838964,7.92210578918457
0.2579660603100964,7.924838542938232
0.2601635941887437,7.927611827850342
0.2562568672933707,7.930384635925293
0.2491759247955072,7.933127403259277
0.2535709925528018,7.935902118682861
0.2491759247955072,7.938638210296631
0.2560126968624099,7.941398859024048
0.25894274203393963,7.94417929649353
0.25430350384568423,7.946915626525879
0.24502502746917343,7.949656963348389
0.2491759247955072,7.952459096908569
0.2467342204858991,7.95520281791687
0.25210596996703694,7.95793342590332
0.2586985716029788,7.96076226234436
0.25479184470760585,7.963504314422607
0.2445366866072518,7.966241121292114
0.2511292882431937,7.969014644622803
0.24575753876205586,7.971814393997192
0.2511292882431937,7.9745447635650635
0.2562568672933707,7.977322101593018
0.25283848125991937,7.980090856552124
0.2418508118666829,7.982824802398682
0.2469783909168599,7.985600471496582
0.24331583445244775,7.988332509994507
0.24819924307166397,7.991142511367798
0.2530826516908802,7.993893623352051
0.2530826516908802,7.996628999710083
0.24136247100476127,7.99940824508667
0.24819924307166397,8.002175331115723
0.24258332315956532,8.00491189956665
0.24575753876205586,8.007694005966187
0.2540593334147234,8.01046872138977
0.2518617995360761,8.013203620910645
0.23843242583323154,8.01598072052002
0.24624587962397748,8.018714189529419
0.2398974484189964,8.021482467651367
0.24502502746917343,8.024264097213745
0.2530826516908802,8.026999473571777
0.2511292882431937,8.029724597930908
0.23696740324746668,8.032520294189453
0.24819924307166397,8.035273313522339
0.24160664143572208,8.038309097290039
0.24575753876205586,8.041130065917969
0.2530826516908802,8.043859720230103
0.24844341350262478,8.046603202819824
0.23574655109266263,8.049372911453247
0.24502502746917343,8.052146911621094
0.23940910755707479,8.054884910583496
0.24380417531436938,8.057658195495605
0.25210596996703694,8.060418367385864
0.24966426565742883,8.063199996948242
0.23623489195458425,8.065942525863647
0.2445366866072518,8.068681955337524
0.2374557441093883,8.071494102478027
0.2374557441093883,8.074234008789062
0.24624587962397748,8.076965570449829
0.24526919790013424,8.0797438621521
0.23110731290440722,8.08250880241394
0.24062995971187884,8.085252285003662
0.23354901721401533,8.088030815124512
0.23794408497130992,8.0908203125
0.2491759247955072,8.093562126159668
0.2486875839335856,8.096346855163574
0.23452569893785857,8.099074363708496
0.24526919790013424,8.101847410202026
0.23818825540227073,8.104626655578613
0.2418508118666829,8.107366561889648
0.2530826516908802,8.110126256942749
0.2511292882431937,8.112900495529175
0.23696740324746668,8.115632772445679
0.2464900500549383,8.11836576461792
0.23818825540227073,8.12122893333435
0.24062995971187884,8.124483823776245
0.2516176291051153,8.127265214920044
0.24844341350262478,8.130043506622314
0.23647906238554506,8.132771492004395
0.24600170919301667,8.13555908203125
0.24111830057380046,8.138305187225342
0.24624587962397748,8.141072273254395
0.25698937858625315,8.143840551376343
0.2579660603100964,8.146574020385742
0.244292516176291,8.149304151535034
0.25430350384568423,8.15211033821106
0.24795507264070316,8.15485429763794
0.2508851178122329,8.15759015083313
0.25967525332682206,8.160403728485107
0.2582102307410572,8.163150787353516
0.2445366866072518,8.165894031524658
0.2538151629837626,8.168670654296875
0.24819924307166397,8.171450138092041
0.25039677695031126,8.174185276031494
0.25894274203393963,8.176960945129395
0.2582102307410572,8.179688215255737
0.2445366866072518,8.18257737159729
0.2518617995360761,8.185357809066772
0.24575753876205586,8.188099384307861
0.2508851178122329,8.190864562988281
0.2626052984983518,8.193636178970337
0.2626052984983518,8.196376323699951
0.24819924307166397,8.199131965637207
0.25894274203393963,8.20191502571106
0.2511292882431937,8.204647779464722
0.2538151629837626,8.20741868019104
0.2655353436698815,8.210212707519531
0.26162861677450855,8.212948322296143
0.24624587962397748,8.215747833251953
0.2579660603100964,8.218477964401245
0.24990843608838964,8.221247673034668
0.2518617995360761,8.224023342132568
0.26358198022219503,8.226768970489502
0.2626052984983518,8.229501962661743
0.24819924307166397,8.232313632965088
0.2577218898791356,8.235054731369019
0.24966426565742883,8.237793922424316
0.25210596996703694,8.240621328353882
0.26577951410084233,8.243355989456177
0.26577951410084233,8.246088027954102
0.2535709925528018,8.248866319656372
0.2577218898791356,8.251630306243896
0.24966426565742883,8.254371643066406
0.25039677695031126,8.257147789001465
0.26187278720546936,8.259915351867676
0.2599194237577829,8.262661457061768
0.24575753876205586,8.26544451713562
0.2538151629837626,8.268181562423706
0.24624587962397748,8.270952939987183
0.24844341350262478,8.273728132247925
0.26187278720546936,8.27645993232727
0.2608961054816261,8.27922797203064
0.24746673177878153,8.28200364112854
0.25503601513856666,8.284741640090942
0.2469783909168599,8.287525415420532
0.24600170919301667,8.290296792984009
0.258454401172018,8.293025970458984
0.25674520815529234,8.295804977416992
0.24380417531436938,8.298542976379395
0.2508851178122329,8.301310777664185
0.2440483457453302,8.304094791412354
0.244292516176291,8.306830406188965
0.2557685264314491,8.309565544128418
0.25430350384568423,8.312459230422974
0.2423391527286045,8.315194845199585
0.2464900500549383,8.317930936813354
0.23916493712611397,8.320739507675171
0.24087413014283965,8.323477268218994
0.2518617995360761,8.326207160949707
0.2513734586741545,8.328989028930664
0.24062995971187884,8.331788301467896
0.2469783909168599,8.334529876708984
0.2420949822976437,8.33731460571289
0.2423391527286045,8.34009051322937
0.2538151629837626,8.342830657958984
0.25235014039799775,8.345603227615356
0.2420949822976437,8.348340511322021
0.24624587962397748,8.351134061813354
0.24111830057380046,8.353896856307983
0.24307166402148694,8.356635570526123
0.2540593334147234,8.359403610229492
0.2530826516908802,8.362171411514282
0.24380417531436938,8.36491584777832
0.24722256134782072,8.367703676223755
0.24478085703821262,8.370479106903076
0.244292516176291,8.373218059539795
0.2560126968624099,8.375993967056274
0.25479184470760585,8.378730297088623
0.24551336833109505,8.38149881362915
0.24844341350262478,8.384280681610107
0.24526919790013424,8.387013673782349
0.24331583445244775,8.389775037765503
0.2557685264314491,8.392560720443726
0.2530826516908802,8.395293235778809
0.24380417531436938,8.398031234741211
0.24624587962397748,8.400843858718872
0.24502502746917343,8.4035804271698
0.2423391527286045,8.406311988830566
0.25430350384568423,8.409093856811523
0.2516176291051153,8.411865472793579
0.24526919790013424,8.41459345817566
0.24624587962397748,8.417369842529297
0.244292516176291,8.42013931274414
0.2423391527286045,8.422872304916382
0.25674520815529234,8.425648927688599
0.2560126968624099,8.428383111953735
0.2491759247955072,8.431185960769653
0.24819924307166397,8.43392562866211
0.2467342204858991,8.436657905578613
0.24380417531436938,8.439437866210938
0.2540593334147234,8.442197561264038
0.253326822121841,8.444930076599121
0.24819924307166397,8.44770860671997
0.24526919790013424,8.450509071350098
0.2467342204858991,8.453247308731079
0.24331583445244775,8.456023931503296
0.2540593334147234,8.45875883102417
0.25479184470760585,8.461525917053223
0.24990843608838964,8.464315414428711
0.24624587962397748,8.467056512832642
0.24722256134782072,8.46982455253601
0.2440483457453302,8.472625732421875
0.2538151629837626,8.475361824035645
0.2538151629837626,8.478102207183838
0.24844341350262478,8.480918884277344
0.2440483457453302,8.483661890029907
0.24771090220974235,8.486399412155151
0.24575753876205586,8.489181995391846
0.25430350384568423,8.491963624954224
0.25479184470760585,8.494691371917725
0.24990843608838964,8.497474908828735
0.244292516176291,8.500246047973633
0.24844341350262478,8.502984523773193
0.2445366866072518,8.50575852394104
0.25210596996703694,8.5084810256958
0.2540593334147234,8.51128077507019
0.2489317543645464,8.51402473449707
0.2423391527286045,8.516761302947998
0.24722256134782072,8.519540548324585
0.24380417531436938,8.522310018539429
0.2511292882431937,8.525041818618774
0.2552801855695275,8.527817964553833
0.2511292882431937,8.530582427978516
0.2423391527286045,8.533349990844727
0.24551336833109505,8.536127805709839
0.2440483457453302,8.53915810585022
0.253326822121841,8.541933298110962
0.25479184470760585,8.544721126556396
0.2511292882431937,8.547455310821533
0.24502502746917343,8.550231695175171
0.24966426565742883,8.553011417388916
0.24575753876205586,8.555747747421265
0.2565010377243315,8.558477878570557
0.2601635941887437,8.56127643585205
0.2579660603100964,8.56401252746582
0.24990843608838964,8.566752672195435
0.2540593334147234,8.569531917572021
0.2508851178122329,8.572325468063354
0.2560126968624099,8.575076341629028
0.25943108289586125,8.577840566635132
0.2560126968624099,8.580613374710083
0.2469783909168599,8.583392858505249
0.2538151629837626,8.586133480072021
0.2491759247955072,8.588871002197266
0.25698937858625315,8.591674327850342
0.2626052984983518,8.594419240951538
0.2577218898791356,8.597156286239624
0.2469783909168599,8.599967241287231
0.25479184470760585,8.602699518203735
0.2491759247955072,8.605440855026245
0.2540593334147234,8.608208894729614
0.25918691246490044,8.610979557037354
0.25674520815529234,8.61372423171997
0.2445366866072518,8.616501808166504
0.2516176291051153,8.619232416152954
0.24624587962397748,8.621997594833374
0.2491759247955072,8.624778985977173
0.2555243560004883,8.627517700195312
0.2530826516908802,8.630281209945679
0.24062995971187884,8.633059740066528
0.24966426565742883,8.635795831680298
0.24380417531436938,8.638531684875488
0.2491759247955072,8.641338109970093
0.2565010377243315,8.64407467842102
0.2562568672933707,8.64680552482605
0.2423391527286045,8.649579286575317
0.25039677695031126,8.652338027954102
0.24307166402148694,8.655093669891357
0.2464900500549383,8.657855033874512
0.25674520815529234,8.660619497299194
0.2538151629837626,8.663401126861572
0.24014161884995722,8.666149616241455
0.2516176291051153,8.668886423110962
0.2440483457453302,8.671709060668945
0.24722256134782072,8.674447774887085
0.2577218898791356,8.677185773849487
0.25698937858625315,8.67999005317688
0.2423391527286045,8.682726621627808
0.2516176291051153,8.685460805892944
0.24380417531436938,8.688242197036743
0.24526919790013424,8.691035270690918
0.25674520815529234,8.693771123886108
0.2562568672933707,8.696542024612427
0.2423391527286045,8.699274778366089
0.2516176291051153,8.702037811279297
0.24307166402148694,8.704814910888672
0.24307166402148694,8.707551717758179
0.2555243560004883,8.7105233669281
0.2540593334147234,8.713300704956055
0.2396532779880356,8.716039180755615
0.24990843608838964,8.718777894973755
0.2418508118666829,8.721583604812622
