semg,time
0.2215846660969356,0.0032548904418945312
0.22768892687095588,0.005963563919067383
0.2237821999755829,0.008696317672729492
0.2284214381638383,0.011371374130249023
0.23183982419728966,0.014398336410522461
0.23013063118056398,0.017120361328125
0.22182883652789642,0.019792556762695312
0.22671224514711263,0.02245640754699707
0.22329385911366129,0.025209665298461914
0.22500305213038696,0.02787613868713379
0.23135148333536804,0.030549287796020508
0.2306189720424856,0.03332328796386719
0.2169454279086802,0.03599357604980469
0.22720058600903426,0.03866124153137207
0.22182883652789642,0.04138803482055664
0.22475888169942615,0.04412555694580078
0.23354901721401533,0.04680347442626953
0.23647906238554506,0.04951310157775879
0.22304968868270048,0.05218076705932617
0.23208399462825047,0.054978370666503906
0.22549139299230858,0.05768942832946777
0.22695641557807344,0.06035208702087402
0.23818825540227073,0.06306743621826172
0.23794408497130992,0.06577634811401367
0.22500305213038696,0.0684511661529541
0.23135148333536804,0.07112550735473633
0.22549139299230858,0.07388091087341309
0.22549139299230858,0.07655882835388184
0.23550238066170182,0.07923316955566406
0.235258210230741,0.08194303512573242
0.22744475643999507,0.08465123176574707
0.2284214381638383,0.08731865882873535
0.22768892687095588,0.09002971649169922
0.226223904285191,0.0926976203918457
0.23550238066170182,0.0954132080078125
0.23599072152362344,0.09810233116149902
0.23232816505921128,0.10079073905944824
0.22744475643999507,0.10354018211364746
0.2325723354901721,0.10621070861816406
0.22695641557807344,0.10888171195983887
0.2325723354901721,0.11161422729492188
0.23550238066170182,0.11431694030761719
0.23403735807593695,0.11699652671813965
0.22304968868270048,0.11970090866088867
0.23135148333536804,0.12237906455993652
0.22671224514711263,0.12507867813110352
0.23135148333536804,0.127793550491333
0.23843242583323154,0.13046836853027344
0.23916493712611397,0.13317275047302246
0.226223904285191,0.1358785629272461
0.2350140397997802,0.1385486125946045
0.2284214381638383,0.14123225212097168
0.23013063118056398,0.14400863647460938
0.2418508118666829,0.146683931350708
0.2423391527286045,0.14938855171203613
0.22964229031864236,0.15210223197937012
0.23672323281650587,0.1548314094543457
0.2306189720424856,0.15750765800476074
0.2306189720424856,0.16021966934204102
0.2423391527286045,0.16292691230773926
0.24307166402148694,0.1656022071838379
0.23135148333536804,0.16831493377685547
0.235258210230741,0.1709902286529541
0.23159565376632885,0.17369651794433594
0.23183982419728966,0.17641305923461914
0.2418508118666829,0.17908835411071777
0.24038578928091803,0.18175959587097168
0.23403735807593695,0.18456244468688965
0.2328165059211329,0.1872389316558838
0.23354901721401533,0.1899106502532959
0.23135148333536804,0.19262981414794922
0.24014161884995722,0.19533443450927734
0.24062995971187884,0.1979999542236328
0.23672323281650587,0.20072627067565918
0.23013063118056398,0.20344305038452148
0.23476986936881938,0.20610761642456055
0.2306189720424856,0.20882511138916016
0.23672323281650587,0.21149420738220215
0.23916493712611397,0.21421003341674805
0.23892076669515316,0.21692323684692383
0.22768892687095588,0.21959686279296875
0.23550238066170182,0.22226238250732422
0.2306189720424856,0.2250065803527832
0.23354901721401533,0.2276771068572998
0.24136247100476127,0.23035168647766113
0.24038578928091803,0.23308634757995605
0.22744475643999507,0.23575544357299805
0.23623489195458425,0.23842668533325195
0.22915394945672074,0.24114203453063965
0.2306189720424856,0.2438502311706543
0.24136247100476127,0.2465224266052246
0.24136247100476127,0.24922990798950195
0.22890977902575993,0.25189661979675293
0.23452569893785857,0.2545928955078125
0.22866560859479912,0.25730204582214355
0.22768892687095588,0.2599656581878662
0.2372115736784275,0.2626383304595947
0.2372115736784275,0.2653787136077881
0.22890977902575993,0.26804494857788086
0.22964229031864236,0.2707085609436035
0.22890977902575993,0.27347445487976074
0.226223904285191,0.27614378929138184
0.23623489195458425,0.2788112163543701
0.23672323281650587,0.28151893615722656
0.23232816505921128,0.2842271327972412
0.22768892687095588,0.2868940830230713
0.2306189720424856,0.28963160514831543
0.2281772677328775,0.29230499267578125
0.24038578928091803,0.296372652053833
0.24062995971187884,0.299058198928833
0.22964229031864236,0.3017435073852539
0.23330484678305452,0.3045082092285156
0.22890977902575993,0.30746889114379883
0.22866560859479912,0.31013941764831543
0.23892076669515316,0.31288790702819824
0.2396532779880356,0.3158292770385742
0.22890977902575993,0.3185148239135742
0.23452569893785857,0.3212301731109619
0.2306189720424856,0.32393980026245117
0.23183982419728966,0.3268861770629883
0.24258332315956532,0.3296029567718506
0.24307166402148694,0.33228254318237305
0.2328165059211329,0.33500170707702637
0.23623489195458425,0.3379828929901123
0.23159565376632885,0.34065723419189453
0.23208399462825047,0.3433818817138672
0.24307166402148694,0.34609222412109375
0.2440483457453302,0.34905052185058594
0.23354901721401533,0.3517634868621826
0.2374557441093883,0.3544774055480957
0.23452569893785857,0.3573424816131592
0.23354901721401533,0.360126256942749
0.2445366866072518,0.36283135414123535
0.2445366866072518,0.36550259590148926
0.23574655109266263,0.3685019016265869
0.23916493712611397,0.37117862701416016
0.23428152850689776,0.3738870620727539
0.23452569893785857,0.376589298248291
0.2440483457453302,0.3795452117919922
0.2445366866072518,0.3822200298309326
0.23599072152362344,0.38497090339660645
0.2374557441093883,0.3876373767852783
0.235258210230741,0.39058995246887207
0.23354901721401533,0.3933587074279785
0.24380417531436938,0.39603734016418457
0.24307166402148694,0.3987152576446533
0.23330484678305452,0.40170860290527344
0.23623489195458425,0.404437780380249
0.23354901721401533,0.4071202278137207
0.23232816505921128,0.41011881828308105
0.24282749359052613,0.41285014152526855
0.24258332315956532,0.41556453704833984
0.23452569893785857,0.41823577880859375
0.23599072152362344,0.42118239402770996
0.23428152850689776,0.4239468574523926
0.23452569893785857,0.4269678592681885
0.24526919790013424,0.4297347068786621
0.24575753876205586,0.432448148727417
0.23476986936881938,0.4351682662963867
0.23916493712611397,0.43811869621276855
0.23428152850689776,0.44083404541015625
0.23452569893785857,0.4435393810272217
0.244292516176291,0.44649410247802734
0.24600170919301667,0.44921278953552246
0.235258210230741,0.4518890380859375
0.24087413014283965,0.4548683166503906
0.235258210230741,0.4575824737548828
0.23647906238554506,0.4602525234222412
0.24771090220974235,0.4631936550140381
0.2491759247955072,0.4659848213195801
0.2372115736784275,0.46866703033447266
0.24136247100476127,0.47136354446411133
0.23672323281650587,0.4743654727935791
0.23696740324746668,0.47705864906311035
0.2467342204858991,0.47978782653808594
0.24819924307166397,0.4824564456939697
0.23574655109266263,0.4854447841644287
0.24111830057380046,0.4881570339202881
0.23672323281650587,0.4908413887023926
0.2372115736784275,0.49382805824279785
0.24746673177878153,0.49654722213745117
0.24795507264070316,0.4992251396179199
0.23599072152362344,0.5019207000732422
0.24038578928091803,0.5049653053283691
0.23428152850689776,0.5076544284820557
0.23452569893785857,0.5103204250335693
0.2440483457453302,0.5134236812591553
0.24624587962397748,0.5160994529724121
0.23428152850689776,0.5187807083129883
0.23940910755707479,0.5214877128601074
0.235258210230741,0.5244746208190918
0.23550238066170182,0.5271503925323486
0.24624587962397748,0.5298604965209961
0.2469783909168599,0.5325369834899902
0.23403735807593695,0.5355625152587891
0.24038578928091803,0.5382380485534668
0.23452569893785857,0.5409083366394043
0.23599072152362344,0.5436534881591797
0.24575753876205586,0.5466048717498779
0.2469783909168599,0.5492801666259766
0.235258210230741,0.5519969463348389
0.2398974484189964,0.5549819469451904
0.23452569893785857,0.5576684474945068
0.23599072152362344,0.5603785514831543
0.24575753876205586,0.5630912780761719
0.2464900500549383,0.5660417079925537
0.235258210230741,0.5687577724456787
0.2396532779880356,0.5714406967163086
0.235258210230741,0.5741441249847412
0.23623489195458425,0.5771057605743408
0.24722256134782072,0.5797858238220215
0.24795507264070316,0.5824577808380127
0.2374557441093883,0.5852031707763672
0.2420949822976437,0.5881576538085938
0.23623489195458425,0.5908355712890625
0.23672323281650587,0.593580961227417
0.24819924307166397,0.5962615013122559
0.2491759247955072,0.5992069244384766
0.23794408497130992,0.6019430160522461
0.24136247100476127,0.6046767234802246
0.2372115736784275,0.6076836585998535
0.23818825540227073,0.6103639602661133
0.24795507264070316,0.6130800247192383
0.24795507264070316,0.6157898902893066
0.23843242583323154,0.6187379360198975
0.24136247100476127,0.6214151382446289
0.23794408497130992,0.624190092086792
0.23818825540227073,0.6268637180328369
0.24844341350262478,0.629817008972168
0.2489317543645464,0.6325323581695557
0.23818825540227073,0.6352682113647461
0.24160664143572208,0.6379380226135254
0.2376999145403491,0.6409299373626709
0.2374557441093883,0.6436495780944824
0.24819924307166397,0.6463255882263184
0.24795507264070316,0.6493122577667236
0.2372115736784275,0.6519899368286133
0.24111830057380046,0.6547000408172607
0.23843242583323154,0.6574130058288574
0.2374557441093883,0.6603579521179199
0.24844341350262478,0.6630904674530029
0.2489317543645464,0.6658148765563965
0.23892076669515316,0.6684868335723877
0.2418508118666829,0.6714653968811035
0.2374557441093883,0.6741771697998047
0.23623489195458425,0.6768536567687988
0.2464900500549383,0.6795673370361328
0.2469783909168599,0.6825118064880371
0.2374557441093883,0.6852283477783203
0.24014161884995722,0.6879386901855469
0.23818825540227073,0.6908917427062988
0.23550238066170182,0.6937265396118164
0.24526919790013424,0.6964445114135742
0.24526919790013424,0.6991128921508789
0.23574655109266263,0.702063798904419
0.23916493712611397,0.7048351764678955
0.23403735807593695,0.7075135707855225
0.23452569893785857,0.7101743221282959
0.24380417531436938,0.7132053375244141
0.24478085703821262,0.715883731842041
0.23476986936881938,0.7185544967651367
0.2374557441093883,0.7212722301483154
0.2350140397997802,0.7242615222930908
0.23452569893785857,0.7269363403320312
0.24575753876205586,0.7296586036682129
0.24502502746917343,0.73260498046875
0.23550238066170182,0.7353324890136719
0.23940910755707479,0.7380304336547852
0.2374557441093883,0.7407033443450928
0.2372115736784275,0.7437279224395752
0.2489317543645464,0.7464215755462646
0.24795507264070316,0.7490966320037842
0.23916493712611397,0.7518165111541748
0.2418508118666829,0.7548224925994873
0.23843242583323154,0.757495641708374
0.2376999145403491,0.7602105140686035
0.24746673177878153,0.7629125118255615
0.24795507264070316,0.7658588886260986
0.23794408497130992,0.7685811519622803
0.2398974484189964,0.7712583541870117
0.23672323281650587,0.7742412090301514
0.23550238066170182,0.7769637107849121
0.24600170919301667,0.7796425819396973
0.2445366866072518,0.7823140621185303
0.23623489195458425,0.7853381633758545
0.23916493712611397,0.7880146503448486
0.23550238066170182,0.7906832695007324
0.2328165059211329,0.7934315204620361
0.24331583445244775,0.7963812351226807
0.2440483457453302,0.7990572452545166
0.23428152850689776,0.8017854690551758
0.23574655109266263,0.8045079708099365
0.23379318764497614,0.8075122833251953
0.23428152850689776,0.8102035522460938
0.244292516176291,0.8129196166992188
0.24380417531436938,0.8158767223358154
0.235258210230741,0.8185606002807617
0.2372115736784275,0.821235179901123
0.23672323281650587,0.823981523513794
0.23476986936881938,0.8269269466400146
0.24526919790013424,0.8296082019805908
0.24331583445244775,0.8323249816894531
0.23623489195458425,0.8350400924682617
0.23623489195458425,0.8379840850830078
0.235258210230741,0.8406970500946045
0.23354901721401533,0.8434040546417236
0.2445366866072518,0.8460776805877686
0.24600170919301667,0.8490705490112305
0.23794408497130992,0.8517837524414062
0.23867659626419235,0.8545041084289551
0.23867659626419235,0.8574178218841553
0.2372115736784275,0.8601644039154053
0.2486875839335856,0.86287522315979
0.25039677695031126,0.865574836730957
0.24136247100476127,0.8685271739959717
0.24038578928091803,0.8712058067321777
0.2376999145403491,0.8739743232727051
0.23476986936881938,0.8766427040100098
0.2440483457453302,0.8796486854553223
0.244292516176291,0.8823237419128418
0.2372115736784275,0.8850302696228027
0.2372115736784275,0.8877420425415039
0.23647906238554506,0.8906867504119873
0.23550238066170182,0.8933978080749512
0.2464900500549383,0.8961126804351807
0.244292516176291,0.8987817764282227
0.23867659626419235,0.9017283916473389
0.23818825540227073,0.9044899940490723
0.23623489195458425,0.9071648120880127
0.235258210230741,0.9101181030273438
0.2489317543645464,0.9128973484039307
0.24526919790013424,0.9155738353729248
0.23940910755707479,0.9182407855987549
0.2374557441093883,0.9212267398834229
0.23818825540227073,0.9239392280578613
0.23452569893785857,0.9266042709350586
0.24380417531436938,0.9293179512023926
0.24331583445244775,0.9322659969329834
0.23599072152362344,0.9351975917816162
0.23623489195458425,0.9379096031188965
0.235258210230741,0.9406552314758301
0.235258210230741,0.9443671703338623
0.2469783909168599,0.9470462799072266
0.24819924307166397,0.9497201442718506
0.23599072152362344,0.9524340629577637
0.24062995971187884,0.9551312923431396
0.23550238066170182,0.9578025341033936
0.23476986936881938,0.9605083465576172
0.2469783909168599,0.9632225036621094
0.24746673177878153,0.9658915996551514
0.23672323281650587,0.9686059951782227
0.23843242583323154,0.9712686538696289
0.23647906238554506,0.9739727973937988
0.23476986936881938,0.9766817092895508
0.24380417531436938,0.9793651103973389
0.24282749359052613,0.9820339679718018
0.2374557441093883,0.9847800731658936
0.23354901721401533,0.987452507019043
0.2372115736784275,0.9901230335235596
0.23403735807593695,0.9928760528564453
0.24136247100476127,0.9955496788024902
0.24356000488340857,0.9982259273529053
0.24087413014283965,1.0009353160858154
0.2303748016115248,1.0036342144012451
0.24502502746917343,1.006321668624878
0.2328165059211329,1.0090413093566895
0.235258210230741,1.0117146968841553
0.24038578928091803,1.0144221782684326
0.2418508118666829,1.0171394348144531
0.22915394945672074,1.0198111534118652
0.2398974484189964,1.0224897861480713
0.23330484678305452,1.0252246856689453
0.23550238066170182,1.0278940200805664
0.24551336833109505,1.030564785003662
0.24624587962397748,1.0333061218261719
0.2328165059211329,1.0359711647033691
0.2396532779880356,1.0386366844177246
0.2330606763520937,1.0413403511047363
0.23330484678305452,1.0440452098846436
0.2423391527286045,1.046712875366211
0.24307166402148694,1.0494239330291748
0.23354901721401533,1.0520939826965332
0.2374557441093883,1.0547869205474854
0.23696740324746668,1.0574877262115479
0.235258210230741,1.0601553916931152
0.2440483457453302,1.0628509521484375
0.24258332315956532,1.0655629634857178
0.23647906238554506,1.0682287216186523
0.23330484678305452,1.0709071159362793
0.23550238066170182,1.0736415386199951
0.2325723354901721,1.0763194561004639
0.23940910755707479,1.0789945125579834
0.2398974484189964,1.0817153453826904
0.23818825540227073,1.0844206809997559
0.22890977902575993,1.0870931148529053
0.23452569893785857,1.0897996425628662
0.23086314247344641,1.0924749374389648
0.2398974484189964,1.0951764583587646
0.2491759247955072,1.097890853881836
0.24844341350262478,1.1005663871765137
0.23476986936881938,1.1032671928405762
0.24819924307166397,1.1059889793395996
0.24307166402148694,1.108668327331543
0.244292516176291,1.1113600730895996
0.25283848125991937,1.1141128540039062
0.253326822121841,1.116790533065796
0.24014161884995722,1.1195111274719238
0.24795507264070316,1.122185230255127
0.24038578928091803,1.1248977184295654
0.24038578928091803,1.1276140213012695
0.25039677695031126,1.1302881240844727
0.2508851178122329,1.132991075515747
0.23916493712611397,1.1357226371765137
0.24258332315956532,1.1383976936340332
0.23818825540227073,1.1410775184631348
0.23867659626419235,1.143822193145752
0.24990843608838964,1.14650297164917
0.24819924307166397,1.1491758823394775
0.24111830057380046,1.1519036293029785
0.24111830057380046,1.1546099185943604
0.24038578928091803,1.1572811603546143
0.24282749359052613,1.1599860191345215
0.2579660603100964,1.1626591682434082
0.2577218898791356,1.1653707027435303
0.2582102307410572,1.1680819988250732
0.2513734586741545,1.1707489490509033
0.25454767427664504,1.173445701599121
0.24990843608838964,1.1761584281921387
0.2538151629837626,1.1788322925567627
0.2560126968624099,1.1814935207366943
0.25479184470760585,1.184239387512207
0.24258332315956532,1.186920404434204
0.25039677695031126,1.18959641456604
0.24502502746917343,1.1923141479492188
0.24819924307166397,1.1950273513793945
0.2555243560004883,1.1979553699493408
0.25479184470760585,1.200777292251587
0.2423391527286045,1.2035846710205078
0.24844341350262478,1.206270456314087
0.24307166402148694,1.2089910507202148
0.2440483457453302,1.2116756439208984
0.25039677695031126,1.2143833637237549
0.24990843608838964,1.217106819152832
0.2374557441093883,1.2197778224945068
0.24600170919301667,1.2224528789520264
0.23867659626419235,1.225193738937378
0.23916493712611397,1.2278647422790527
0.2508851178122329,1.2305243015289307
0.25039677695031126,1.2332842350006104
0.23647906238554506,1.2359490394592285
0.2418508118666829,1.238630771636963
0.23599072152362344,1.241346836090088
0.23428152850689776,1.2440574169158936
0.244292516176291,1.246720790863037
0.2440483457453302,1.2494373321533203
0.23550238066170182,1.2521014213562012
0.23623489195458425,1.2548103332519531
0.2325723354901721,1.257526159286499
0.22744475643999507,1.2601940631866455
0.23208399462825047,1.2628920078277588
0.23135148333536804,1.2656092643737793
0.22500305213038696,1.2682812213897705
0.2235380295446221,1.270961046218872
0.2284214381638383,1.2737228870391846
0.22256134782077885,1.2764005661010742
0.22671224514711263,1.2790648937225342
0.2284214381638383,1.2817840576171875
0.2281772677328775,1.284489631652832
0.21792210963252345,1.2871642112731934
0.2257355634232694,1.2898764610290527
0.22256134782077885,1.2925491333007812
0.226223904285191,1.2952513694763184
0.23159565376632885,1.2979683876037598
0.23159565376632885,1.3006393909454346
0.21816628006348426,1.3033602237701416
0.2284214381638383,1.306060791015625
0.22231717738981804,1.3087413311004639
0.22524722256134777,1.3114516735076904
0.23672323281650587,1.3141698837280273
0.23794408497130992,1.316842794418335
0.2257355634232694,1.3195552825927734
0.2325723354901721,1.3222260475158691
0.22671224514711263,1.3249342441558838
0.2325723354901721,1.327643632888794
0.24282749359052613,1.3303203582763672
0.2440483457453302,1.3330247402191162
0.23452569893785857,1.3357360363006592
0.23452569893785857,1.3384051322937012
0.22890977902575993,1.3410799503326416
0.22304968868270048,1.3438258171081543
0.23159565376632885,1.3465023040771484
0.23135148333536804,1.349165916442871
0.22671224514711263,1.3518693447113037
0.22524722256134777,1.354597806930542
0.2279330973019167,1.3572700023651123
0.22475888169942615,1.3599772453308105
0.23476986936881938,1.3626470565795898
0.23379318764497614,1.365349531173706
0.22964229031864236,1.3680627346038818
0.22182883652789642,1.3707287311553955
0.22646807471615182,1.373436450958252
0.22182883652789642,1.3761475086212158
0.22427054083750453,1.3788201808929443
0.22939811988768155,1.381490707397461
0.2257355634232694,1.3842389583587646
0.21377121230618967,1.3869106769561768
0.22744475643999507,1.3895866870880127
0.22280551825173966,1.392315149307251
0.23232816505921128,1.3950254917144775
0.2491759247955072,1.3976993560791016
0.24600170919301667,1.400420904159546
0.24062995971187884,1.403125286102295
0.25454767427664504,1.4057884216308594
0.24844341350262478,1.4085111618041992
0.2538151629837626,1.4111826419830322
0.26162861677450855,1.4139025211334229
0.26358198022219503,1.4166111946105957
0.2530826516908802,1.4192755222320557
0.2565010377243315,1.4219489097595215
0.25283848125991937,1.4246861934661865
0.24966426565742883,1.4274084568023682
0.2577218898791356,1.4301581382751465
0.25503601513856666,1.4329090118408203
0.2445366866072518,1.4355812072753906
0.24966426565742883,1.4382545948028564
0.2508851178122329,1.4409594535827637
0.2469783909168599,1.4436867237091064
0.2560126968624099,1.4463655948638916
0.25430350384568423,1.4490737915039062
0.24819924307166397,1.45173978805542
0.24502502746917343,1.4544484615325928
0.24624587962397748,1.4571573734283447
0.24600170919301667,1.4598369598388672
0.24819924307166397,1.4625053405761719
0.24819924307166397,1.4652471542358398
0.2445366866072518,1.46791672706604
0.2372115736784275,1.4705824851989746
0.24502502746917343,1.473341941833496
0.24111830057380046,1.4760167598724365
0.2518617995360761,1.478682041168213
0.2626052984983518,1.481391191482544
0.2655353436698815,1.4841759204864502
0.2552801855695275,1.4868481159210205
0.2694420705652545,1.4895615577697754
0.26358198022219503,1.4922375679016113
0.26870955927237206,1.4949355125427246
0.27823220607984367,1.4976537227630615
0.2814064216823342,1.5003232955932617
0.27115126358198016,1.503030776977539
0.2743254791844707,1.505739688873291
0.2691979001342937,1.5084247589111328
0.26577951410084233,1.511096715927124
0.2716396044439018,1.5138583183288574
0.2716396044439018,1.516531229019165
0.2599194237577829,1.5191967487335205
0.26187278720546936,1.5219056606292725
0.25747771944817477,1.5246224403381348
0.2511292882431937,1.5272996425628662
0.25479184470760585,1.5300099849700928
0.25235014039799775,1.5326838493347168
0.24746673177878153,1.5354094505310059
0.24722256134782072,1.538102388381958
0.24600170919301667,1.5408170223236084
0.2440483457453302,1.5435659885406494
0.2489317543645464,1.5462448596954346
0.24819924307166397,1.548917531967163
0.24380417531436938,1.551626205444336
0.23818825540227073,1.5543293952941895
0.24819924307166397,1.5569980144500732
0.24624587962397748,1.5597140789031982
0.26675619582468557,1.5623886585235596
0.28213893297521664,1.5650897026062012
0.27505799047735313,1.5678048133850098
0.26407032108411665,1.5704693794250488
0.29385911366133555,1.5731773376464844
0.29605664753998284,1.5758919715881348
0.2970333292638261,1.5785629749298096
0.30557929434745446,1.5812368392944336
0.29581247710902203,1.5839877128601074
0.28042973995849096,1.5866584777832031
0.2814064216823342,1.5893232822418213
0.2811622512513734,1.592036247253418
0.30582346477841527,1.5947608947753906
0.3199853497741423,1.5974295139312744
0.32853131485777065,1.6001367568969727
0.32413624710047606,1.6028401851654053
0.3336588939079477,1.6055166721343994
0.3395189842510071,1.6082489490509033
0.32804297399584903,1.6109349727630615
0.33585642778659497,1.613640546798706
0.3343914052008301,1.6163649559020996
0.3297521670125747,1.6190311908721924
0.32584544011720173,1.621713638305664
0.3155902820168477,1.6244573593139648
0.3153461115858869,1.6271278858184814
0.3221828836527896,1.6298012733459473
0.3209620314979855,1.6325078010559082
0.33512391649371254,1.6352109909057617
0.3739470150164814,1.637894630432129
0.3688194359663044,1.6406080722808838
0.3751678671712855,1.6433093547821045
0.4032474667317787,1.6459834575653076
0.39958491026736653,1.6487267017364502
0.3937248199243071,1.6513969898223877
0.3844463435477963,1.654099464416504
0.40715419362715166,1.6568164825439453
0.401538273715053,1.6594884395599365
0.38664387742644357,1.6621534824371338
0.38371383225491384,1.6649055480957031
0.3846905139787571,1.6675782203674316
0.40446831888658275,1.6702508926391602
0.4061775119033084,1.6729938983917236
0.3986082285435233,1.6756680011749268
0.405445000610426,1.6783335208892822
0.4059333414723476,1.6810472011566162
0.4086192162129165,1.6837480068206787
0.4237577829324868,1.686418056488037
0.4237577829324868,1.6891329288482666
0.4357221340495665,1.6918087005615234
0.45940666585276513,1.6945147514343262
0.48016115248443403,1.6972265243530273
0.4950555487730435,1.6999011039733887
0.5121474789403004,1.7025747299194336
0.519228421438164,1.7053179740905762
0.533390306433891,1.7079856395721436
0.5321694542790869,1.7106668949127197
0.5119033085093396,1.7135288715362549
0.5109266267854964,1.7161974906921387
0.5057990477353194,1.7188756465911865
0.4904163105847881,1.7215948104858398
0.5121474789403004,1.7243022918701172
0.5512147478940301,1.7269706726074219
0.5641557807349531,1.7296836376190186
0.5648882920278355,1.7323527336120605
0.5722134049566598,1.735133409500122
0.5783176657306801,1.7378427982330322
0.6098156513246247,1.7405140399932861
0.5907703577096814,1.7432177066802979
0.5722134049566598,1.7459311485290527
0.561714076425345,1.748605489730835
0.5582956903918936,1.7512784004211426
0.5519472591869126,1.7540149688720703
0.5507264070321085,1.7566843032836914
0.5355878403125383,1.7593622207641602
0.5187400805762423,1.7620494365692139
0.5082407520449275,1.764744758605957
0.4952997192040043,1.767449140548706
0.4743010621413746,1.770132064819336
0.45501159809547054,1.7728338241577148
0.4547674276645097,1.7755403518676758
0.45183738249298,1.778212308883667
0.4452447808570381,1.7808825969696045
0.43010621413746786,1.783623456954956
0.4313270662922719,1.7862911224365234
0.4611158588694908,1.7889649868011475
0.4657550970577462,1.791673183441162
0.48724209498229754,1.7943782806396484
0.5018923208399464,1.7970445156097412
0.49188133317055294,1.7997558116912842
0.47356855084849214,1.8024218082427979
0.475033573434257,1.8051245212554932
0.4638017336100597,1.8078372478485107
0.4657550970577462,1.810518741607666
0.4684409717983151,1.8132312297821045
0.46917348309119755,1.8159420490264893
0.4813820046392381,1.8186094760894775
0.47185935783176647,1.8212809562683105
0.46868514222927593,1.8240313529968262
0.46648760835062864,1.8267076015472412
0.47161518740080566,1.8293769359588623
0.46258088145525567,1.8320863246917725
0.45989500671468675,1.8348121643066406
0.4423147356855084,1.8374805450439453
0.4501281894762543,1.8401927947998047
0.4547674276645097,1.8429028987884521
0.4845562202417286,1.845573902130127
0.4977414235136124,1.8482906818389893
0.4845562202417286,1.8509619235992432
0.47356855084849214,1.8536760807037354
0.4904163105847881,1.8564002513885498
0.4835795385178854,1.8590893745422363
0.4755219142961786,1.8617615699768066
0.46013917714564756,1.8645026683807373
0.4469539738737638,1.8671739101409912
0.44182639482358677,1.869842767715454
0.44377975827127325,1.8725533485412598
0.4384080087901354,1.8752601146697998
0.45501159809547054,1.8779280185699463
0.46868514222927593,1.880645751953125
0.4657550970577462,1.8833825588226318
0.4562324502502746,1.886061429977417
0.46917348309119755,1.8887698650360107
0.47649859602002187,1.8914484977722168
0.46502258576486377,1.894165277481079
0.48089366377731646,1.8968772888183594
0.4821145159321205,1.8995420932769775
0.49236967403247456,1.9022150039672852
0.4882187767061408,1.9049897193908691
0.48528873153461105,1.9076685905456543
0.5038456842876329,1.9103450775146484
0.5226468074716153,1.9131104946136475
0.5231351483335369,1.9157841205596924
0.521670125747772,1.918454885482788
0.5018923208399464,1.9211618900299072
0.4911488218776705,1.9238746166229248
0.48260285679404213,1.926544189453125
0.49920644609937725,1.9292564392089844
0.49725308265169077,1.931934118270874
0.4913929923086313,1.9346392154693604
0.48528873153461105,1.937352180480957
0.48724209498229754,1.9400250911712646
0.47112684653888404,1.9426915645599365
0.4540349163716273,1.9454333782196045
0.4611158588694908,1.9481065273284912
0.46013917714564756,1.9507853984832764
0.44377975827127325,1.9535503387451172
0.4513490416310584,1.956223964691162
0.43865217922109623,1.9588911533355713
0.4535465755097057,1.9616010189056396
0.4630692223171773,1.964303731918335
0.4547674276645097,1.9669804573059082
0.43962886094493947,1.9696879386901855
0.4374313270662922,1.97121000289917
0.4471981443047246,1.9725432395935059
0.45330240507874486,1.9747185707092285
0.4476864851666462,1.9760890007019043
0.45305823464778405,1.9774270057678223
0.46404590404102053,1.9787638187408447
0.46892931266023674,1.9800941944122314
0.46404590404102053,1.9814274311065674
0.4696618239531192,1.9827804565429688
0.4723476986936881,1.9842803478240967
0.4628250518862165,1.9856197834014893
0.456964961543157,1.986954927444458
0.4606275180075692,1.9882936477661133
0.46184837016237323,1.9896290302276611
0.46502258576486377,1.990962028503418
0.46013917714564756,1.9923193454742432
0.46087168843853,1.9936747550964355
0.46404590404102053,1.9951574802398682
0.46892931266023674,1.9964938163757324
0.46648760835062864,1.9978299140930176
0.4613600293004516,1.9991636276245117
0.4535465755097057,2.000515937805176
0.4489073373214503,2.0018513202667236
0.43962886094493947,2.0032007694244385
0.45745330240507864,2.00467586517334
0.46673177878158945,2.006016254425049
0.46013917714564756,2.0073626041412354
0.45501159809547054,2.008707046508789
0.4540349163716273,2.01005220413208
0.45745330240507864,2.0113933086395264
0.47185935783176647,2.0127289295196533
0.47649859602002187,2.0140881538391113
0.4696618239531192,2.015597105026245
0.47112684653888404,2.016934871673584
0.4725918691246489,2.01827335357666
0.4684409717983151,2.0196094512939453
0.4696618239531192,2.0209460258483887
0.46917348309119755,2.0222833156585693
0.4638017336100597,2.0236616134643555
0.45794164326700026,2.025139093399048
0.46404590404102053,2.026482343673706
0.47649859602002187,2.0278217792510986
0.49017214015382726,2.0291616916656494
0.4904163105847881,2.030499219894409
0.4869979245513367,2.031853675842285
0.4962764009278475,2.033207416534424
0.49236967403247456,2.0345451831817627
0.4882187767061408,2.0360264778137207
0.4843120498107678,2.037367582321167
0.47820778903674754,2.0387065410614014
0.4706385056769624,2.0400681495666504
0.4633133927481381,2.041405200958252
0.4540349163716273,2.0427401065826416
0.4452447808570381,2.044092893600464
0.44329141740935163,2.0455732345581055
0.43938469051397866,2.0469136238098145
0.4357221340495665,2.0482733249664307
0.43938469051397866,2.049612045288086
0.4305945549993895,2.0509510040283203
0.4215602490538395,2.0522913932800293
0.4149676474178976,2.053647518157959
0.4218044194848003,2.054985284805298
0.41838603345134895,2.056487560272217
0.41423513612501517,2.057821035385132
0.40715419362715166,2.0591578483581543
0.4032474667317787,2.060495376586914
0.4078867049200341,2.06183123588562
0.414479306555976,2.063185214996338
0.41179343181540706,2.0645408630371094
0.40715419362715166,2.066014528274536
0.40935172750579896,2.0673534870147705
0.4198510560371138,2.0686910152435303
0.4242461237944084,2.070026159286499
0.4266878281040165,2.071531057357788
0.44280307654743,2.0742650032043457
0.4450006104260773,2.077209949493408
0.4454889512879989,2.0799262523651123
0.437675497497253,2.0825953483581543
0.44109388353070433,2.085304021835327
0.42986204370650705,2.0882856845855713
0.42302527163960435,2.090968132019043
0.4122817726773287,2.0936694145202637
0.41423513612501517,2.096376657485962
0.40935172750579896,2.0993235111236572
0.3993407398364057,2.1019909381866455
0.38664387742644357,2.104734420776367
0.38395800268587466,2.10760235786438
0.3759003784641679,2.1103384494781494
0.3871322182883652,2.1131043434143066
0.3868880478574044,2.115783214569092
0.37687706018801115,2.1187291145324707
0.3683310951043828,2.1214394569396973
0.3671102429495787,2.124150514602661
0.35148333536808685,2.126823902130127
0.3414723476986936,2.129833459854126
0.3395189842510071,2.132509708404541
0.32901965571969227,2.135221004486084
0.33341472347698686,2.1379318237304688
0.34684409717983145,2.1408793926239014
0.3390306433890855,2.1436240673065186
0.3368331095104382,2.146301507949829
0.331949700891222,2.1489665508270264
0.3277988035648882,2.1519501209259033
0.3204736906360639,2.154649019241333
0.3207178610670247,2.1573214530944824
0.3163227933097301,2.1603198051452637
0.3273104627029666,2.1630520820617676
0.3341472347698693,2.1657235622406006
0.3299963374435355,2.168435573577881
0.32853131485777065,2.171368360519409
0.3336588939079477,2.1740763187408447
0.32804297399584903,2.1767935752868652
0.32804297399584903,2.179466485977173
0.3321938713221828,2.182406187057495
0.322915394945672,2.1851494312286377
0.3160786228787693,2.187821865081787
0.32633378097912336,2.19049072265625
0.322915394945672,2.193528175354004
0.3502624832132828,2.1962082386016846
0.3497741423513612,2.19887638092041
0.34513490416310577,2.2018625736236572
0.33292638261506524,2.2045674324035645
0.3434257111463801,2.207563638687134
0.3407398364058112,2.210737943649292
0.3556342326944206,2.214611768722534
0.3497741423513612,2.218024492263794
0.34489073373214496,2.2207870483398438
0.38127212794530574,2.224155902862549
0.37199365156879494,2.227712392807007
0.3915272860456598,2.2304489612579346
0.3849346844097179,2.233659505844116
0.3688194359663044,2.236703634262085
0.373214503723599,2.239861249923706
0.3636918569161274,2.2429232597351074
0.3759003784641679,2.2464141845703125
0.37883042363569763,2.2495501041412354
0.37028445855206926,2.2526841163635254
0.3715053107068733,2.2562215328216553
0.36125015260651927,2.2592391967773438
0.3531925283848125,2.262269973754883
0.3546575509705774,2.2658097743988037
0.3507508240752044,2.2686665058135986
0.3387864729581247,2.271862506866455
0.340984006836772,2.2753984928131104
0.35856427786595035,2.2782440185546875
0.3475766084727139,2.2813470363616943
0.34952997192040036,2.2845823764801025
0.3429373702844585,2.2876739501953125
0.35343669881577333,2.2907185554504395
0.35123916493712604,2.2939043045043945
0.35661091441826387,2.297002077102661
0.35368086924673414,2.3000197410583496
0.3395189842510071,2.3033828735351562
0.3387864729581247,2.3061649799346924
0.331949700891222,2.309049367904663
0.33292638261506524,2.3121423721313477
0.32364790623855444,2.315657138824463
0.32633378097912336,2.318648099899292
0.3185203271883774,2.321789026260376
0.32901965571969227,2.3252387046813965
0.3180319863264558,2.3283464908599854
0.3395189842510071,2.331357955932617
0.33292638261506524,2.33476185798645
0.3270662922720058,2.3378448486328125
0.3246245879623977,2.3409032821655273
0.3109510438285923,2.344266653060913
0.3202295202051031,2.3474466800689697
0.31510194115492607,2.3504765033721924
0.2977658405567085,2.353827476501465
0.304846783054572,2.356846332550049
0.2970333292638261,2.3597488403320312
0.3038701013307288,2.3627257347106934
0.3141252594310828,2.3662118911743164
0.3187644976193382,2.369067668914795
0.31461360029300445,2.371774435043335
0.3246245879623977,2.3753695487976074
0.3221828836527896,2.3784899711608887
0.3302405078744963,2.3812308311462402
0.32340373580759363,2.3844709396362305
0.32145037235990714,2.3874664306640625
0.3202295202051031,2.3905532360076904
0.308753509949945,2.3939101696014404
0.30289341960688554,2.3969972133636475
0.30069588572823824,2.40024995803833
0.2950799658161396,2.403721332550049
0.29654498840190446,2.406766891479492
0.2884873641801977,2.409900426864624
0.2921499206446099,2.413167715072632
0.294591624954218,2.4166269302368164
0.28702234159443285,2.4195919036865234
0.28433646685386393,2.4226179122924805
0.27530216090831394,2.426105260848999
0.2579660603100964,2.429093360900879
0.272616286167745,2.431994915008545
0.26382615065315584,2.4353723526000977
0.25698937858625315,2.438302993774414
0.25918691246490044,2.441331624984741
0.25235014039799775,2.4446754455566406
0.25479184470760585,2.447492837905884
0.25503601513856666,2.4505057334899902
0.24990843608838964,2.453944206237793
0.2560126968624099,2.4569509029388428
0.25015260651935045,2.459662675857544
0.24771090220974235,2.462573528289795
0.258454401172018,2.466043472290039
0.2579660603100964,2.46897029876709
0.2518617995360761,2.47208309173584
0.2506409473812721,2.4757745265960693
0.2560126968624099,2.4788129329681396
0.25967525332682206,2.4819650650024414
0.26382615065315584,2.4854044914245605
0.25235014039799775,2.4885377883911133
0.25283848125991937,2.4915945529937744
0.26577951410084233,2.495054244995117
0.27774386521792205,2.4981448650360107
0.28287144426809907,2.501168727874756
0.2679770479794896,2.5046725273132324
0.2716396044439018,2.5074570178985596
0.2699304114271761,2.5104737281799316
0.2762788426321572,2.5137813091278076
0.27530216090831394,2.5165135860443115
0.27115126358198016,2.5192267894744873
0.27041875228909773,2.521944284439087
0.27579050177023556,2.5249481201171875
0.2792088878036869,2.527662992477417
0.29605664753998284,2.5303306579589844
0.2909290684898058,2.5333092212677
0.285557319008668,2.5360231399536133
0.2833597851300207,2.5386962890625
0.2887315346111585,2.5413670539855957
0.29141740935172744,2.544384002685547
0.30289341960688554,2.547058582305908
0.3160786228787693,2.5497336387634277
0.3136369185691612,2.5524375438690186
0.3141252594310828,2.5554444789886475
0.3163227933097301,2.5581202507019043
0.3182761567574166,2.5608439445495605
0.33756562080332064,2.5638320446014404
0.3414723476986936,2.5665132999420166
0.33805396166524226,2.569221019744873
0.33121718959833957,2.5718979835510254
0.33317055304602605,2.5749619007110596
0.32657795141008417,2.577678680419922
0.32853131485777065,2.5803472995758057
0.32438041753143687,2.583341121673584
0.3163227933097301,2.586036205291748
0.31217189598339634,2.5887134075164795
0.308753509949945,2.5913941860198975
0.30777682822610175,2.59440279006958
0.31021853253570986,2.597079277038574
0.31046270296667067,2.599794387817383
0.30728848736418013,2.6024608612060547
0.3155902820168477,2.6054561138153076
0.3109510438285923,2.608168125152588
0.3019167378830423,2.6108362674713135
0.304846783054572,2.6138100624084473
0.3016725674520815,2.616565227508545
0.2953241362471004,2.6192500591278076
0.2899523867659626,2.6219260692596436
0.28970821633500177,2.6256954669952393
0.28213893297521664,2.6283833980560303
0.28946404590404096,2.631054162979126
0.2887315346111585,2.633821964263916
0.2794530582346477,2.6364927291870117
0.2760346722011964,2.6391611099243164
0.2677328775485288,2.6418659687042236
0.2648028323769991,2.6445767879486084
0.2608961054816261,2.6472413539886475
0.25967525332682206,2.6499757766723633
0.25894274203393963,2.6526453495025635
0.25430350384568423,2.6553702354431152
0.2535709925528018,2.6580567359924316
0.2530826516908802,2.660727024078369
0.26382615065315584,2.6634819507598877
0.26651202539372476,2.666149139404297
0.2628494689293126,2.6688079833984375
0.25210596996703694,2.671537160873413
0.25894274203393963,2.674264907836914
0.2586985716029788,2.676934003829956
0.2679770479794896,2.6796376705169678
0.267488707117568,2.6823112964630127
0.26870955927237206,2.6850149631500244
0.25479184470760585,2.687722682952881
0.2608961054816261,2.69039249420166
0.2601635941887437,2.6931915283203125
0.26162861677450855,2.695906400680542
0.2648028323769991,2.6985769271850586
0.27041875228909773,2.7012434005737305
0.2601635941887437,2.7039859294891357
0.2679770479794896,2.7066450119018555
0.25943108289586125,2.709310531616211
0.2606519350506653,2.712022066116333
0.2650470028079599,2.714729070663452
0.2601635941887437,2.7173986434936523
0.24990843608838964,2.7201194763183594
0.258454401172018,2.72282075881958
0.2538151629837626,2.725489854812622
0.2608961054816261,2.7281932830810547
0.27554633133927475,2.730865240097046
0.2738371383225491,2.7336394786834717
0.27310462702966665,2.7363524436950684
0.2794530582346477,2.73901629447937
0.27969722866560853,2.7416908740997314
0.2811622512513734,2.744429588317871
0.29605664753998284,2.747105598449707
0.294591624954218,2.749779462814331
0.29141740935172744,2.752490520477295
0.28726651202539366,2.7551894187927246
0.29654498840190446,2.757861375808716
0.2953241362471004,2.7605674266815186
0.29898669271151257,2.7632687091827393
0.29410328409229636,2.765934944152832
0.29361494323037474,2.7686476707458496
0.27969722866560853,2.7713208198547363
0.2860456598705896,2.7740280628204346
0.28287144426809907,2.77673602104187
0.2901965571969234,2.779402732849121
0.2921499206446099,2.7820661067962646
0.2972774996947869,2.784806728363037
0.28287144426809907,2.787468910217285
0.28921987547308015,2.7901320457458496
0.28042973995849096,2.792891502380371
0.2811622512513734,2.795567512512207
0.28751068245635447,2.7982382774353027
0.2858014894396288,2.8009543418884277
0.2772555243560004,2.8036649227142334
0.2743254791844707,2.806333541870117
0.2694420705652545,2.8090367317199707
0.2577218898791356,2.811710834503174
0.26602368453180314,2.8144049644470215
0.2655353436698815,2.8171277046203613
0.2560126968624099,2.819795608520508
0.25430350384568423,2.8224596977233887
0.2506409473812721,2.8252065181732178
0.24771090220974235,2.827885627746582
0.25235014039799775,2.830547332763672
0.2506409473812721,2.8332884311676025
0.24502502746917343,2.8359673023223877
0.24136247100476127,2.838641881942749
0.244292516176291,2.8413586616516113
0.2445366866072518,2.844069480895996
0.24990843608838964,2.8467469215393066
0.2508851178122329,2.849454641342163
0.2508851178122329,2.8521175384521484
0.23916493712611397,2.8548178672790527
0.2423391527286045,2.8575332164764404
0.2423391527286045,2.8602046966552734
0.23672323281650587,2.862903594970703
0.23916493712611397,2.865654706954956
0.23550238066170182,2.86832857131958
0.22231717738981804,2.871000289916992
0.23208399462825047,2.8737406730651855
0.22890977902575993,2.876415252685547
0.2325723354901721,2.879089832305908
0.2330606763520937,2.881805181503296
0.23452569893785857,2.8845055103302
0.22256134782077885,2.887176990509033
0.22500305213038696,2.8898844718933105
0.2188987913563667,2.892550230026245
0.212062019289464,2.8952455520629883
0.2169454279086802,2.897953510284424
0.2169454279086802,2.900623083114624
0.20888780368697346,2.9033467769622803
0.2118178488585032,2.906036853790283
0.2098644854108167,2.9087140560150146
0.21401538273715048,2.911397695541382
0.21792210963252345,2.9141576290130615
0.2145037235990721,2.916837453842163
0.21132950799658157,2.9195520877838135
0.2071786106702478,2.9222233295440674
0.20473690636063968,2.924934148788452
0.20205103162007076,2.9276669025421143
0.20864363325601265,2.9303383827209473
0.21157367842754238,2.9330434799194336
0.21377121230618967,2.935760259628296
0.20791112196313022,2.9384238719940186
0.21767793920156264,2.9410996437072754
0.21279453058234643,2.943840265274048
0.21010865584177751,2.9465084075927734
0.21328287144426805,2.9491822719573975
0.2142595531681113,2.951897382736206
0.20400439506775725,2.9546010494232178
0.2145037235990721,2.9572746753692627
0.20864363325601265,2.95997953414917
0.21010865584177751,2.9626588821411133
0.21963130264924913,2.9653518199920654
0.22036381394213156,2.968066930770874
0.2074227811012086,2.970737934112549
0.22182883652789642,2.973440647125244
0.21792210963252345,2.9761483669281006
0.21963130264924913,2.9788174629211426
0.23110731290440722,2.9814844131469727
0.23330484678305452,2.9842283725738525
0.22475888169942615,2.986894130706787
0.22939811988768155,2.9895665645599365
0.22646807471615182,2.9922757148742676
0.226223904285191,2.994985580444336
0.23232816505921128,2.997652769088745
0.23208399462825047,3.0003738403320312
0.22524722256134777,3.003084897994995
0.22524722256134777,3.0057590007781982
0.22427054083750453,3.008472204208374
0.221096325235014,3.0111467838287354
0.22695641557807344,3.014073133468628
0.22744475643999507,3.016794443130493
0.22256134782077885,3.019474506378174
0.2169454279086802,3.0221481323242188
0.21938713221828832,3.0249009132385254
0.21303870101330724,3.0275747776031494
0.21499206446099373,3.030240058898926
0.2188987913563667,3.0329999923706055
0.2188987913563667,3.035670280456543
0.20888780368697346,3.0383400917053223
0.21841045049444507,3.0410492420196533
0.21401538273715048,3.043755531311035
0.21718959833964102,3.0464236736297607
0.22256134782077885,3.049131155014038
0.2235380295446221,3.051795721054077
0.21108533756562076,3.0544984340667725
0.22085215480405318,3.0572056770324707
0.21499206446099373,3.059870958328247
0.2169454279086802,3.0625388622283936
0.22695641557807344,3.0652847290039062
0.2284214381638383,3.067955493927002
0.21718959833964102,3.0706281661987305
0.22427054083750453,3.07336688041687
0.21963130264924913,3.076037883758545
0.22182883652789642,3.0787062644958496
0.23159565376632885,3.0814156532287598
0.23354901721401533,3.0841174125671387
0.22427054083750453,3.086786985397339
0.22744475643999507,3.0894980430603027
0.22695641557807344,3.092162847518921
0.226223904285191,3.094860553741455
0.24062995971187884,3.0975725650787354
0.2420949822976437,3.1002449989318848
0.24014161884995722,3.1029446125030518
0.2374557441093883,3.105649948120117
0.23940910755707479,3.108330249786377
0.235258210230741,3.110991954803467
0.2398974484189964,3.1137402057647705
0.24136247100476127,3.116410732269287
0.23916493712611397,3.1190905570983887
0.22964229031864236,3.1218068599700928
0.2372115736784275,3.1245205402374268
0.2325723354901721,3.127185344696045
0.23574655109266263,3.129889965057373
0.2418508118666829,3.132561445236206
0.24136247100476127,3.135260581970215
0.22744475643999507,3.137967348098755
0.23696740324746668,3.140641450881958
0.2306189720424856,3.143364667892456
0.23208399462825047,3.146057367324829
0.24136247100476127,3.1487274169921875
0.2423391527286045,3.1514174938201904
0.23013063118056398,3.1541552543640137
0.2376999145403491,3.156827211380005
0.23208399462825047,3.1595287322998047
0.23159565376632885,3.1622021198272705
0.2420949822976437,3.1649169921875
0.24258332315956532,3.1676249504089355
0.23135148333536804,3.1702914237976074
0.23403735807593695,3.1729979515075684
0.2306189720424856,3.175701141357422
0.22915394945672074,3.1783719062805176
0.24307166402148694,3.181042194366455
0.24258332315956532,3.183807134628296
0.23623489195458425,3.1864850521087646
0.23623489195458425,3.189148187637329
0.23916493712611397,3.1918582916259766
0.23623489195458425,3.1945574283599854
0.24307166402148694,3.1972289085388184
0.244292516176291,3.199941396713257
0.24038578928091803,3.2026150226593018
0.23135148333536804,3.2053158283233643
0.23794408497130992,3.2080533504486084
0.23403735807593695,3.2107372283935547
0.23818825540227073,3.213444709777832
0.2423391527286045,3.2161529064178467
0.2423391527286045,3.218834400177002
0.22964229031864236,3.2215163707733154
0.2376999145403491,3.224274158477783
0.2325723354901721,3.226949691772461
0.23403735807593695,3.2296178340911865
0.24380417531436938,3.232327699661255
0.2423391527286045,3.235032320022583
0.22988646074960317,3.237706422805786
0.23672323281650587,3.240412712097168
0.23013063118056398,3.243190288543701
0.23892076669515316,3.245867967605591
0.25430350384568423,3.2485692501068115
0.25967525332682206,3.251237630844116
0.2565010377243315,3.2539448738098145
0.26162861677450855,3.25665545463562
0.2560126968624099,3.2593228816986084
0.25479184470760585,3.2619848251342773
0.2655353436698815,3.264732837677002
0.26358198022219503,3.2674005031585693
0.2540593334147234,3.270068645477295
0.2538151629837626,3.2728216648101807
0.25210596996703694,3.2754909992218018
0.25039677695031126,3.278151512145996
0.2582102307410572,3.280860424041748
0.25747771944817477,3.283559799194336
0.2530826516908802,3.286229133605957
0.2464900500549383,3.288943290710449
0.24966426565742883,3.291620969772339
0.2445366866072518,3.294325828552246
0.2535709925528018,3.2970376014709473
0.2535709925528018,3.2997000217437744
0.25210596996703694,3.302370548248291
0.24014161884995722,3.305112838745117
0.24526919790013424,3.307788372039795
0.23916493712611397,3.310455322265625
0.2423391527286045,3.3131957054138184
0.25235014039799775,3.315861940383911
0.24990843608838964,3.318544864654541
0.23550238066170182,3.32126784324646
0.2489317543645464,3.3239858150482178
0.24307166402148694,3.326655864715576
0.2440483457453302,3.329374313354492
0.25430350384568423,3.332045078277588
0.2538151629837626,3.3347482681274414
0.24038578928091803,3.337456226348877
0.2469783909168599,3.3401358127593994
0.24111830057380046,3.3428311347961426
0.24062995971187884,3.3455445766448975
0.25015260651935045,3.348206043243408
0.24990843608838964,3.3508923053741455
0.24062995971187884,3.353640079498291
0.2420949822976437,3.3563108444213867
0.23916493712611397,3.3589835166931152
0.23623489195458425,3.361699104309082
0.24502502746917343,3.3644068241119385
0.2440483457453302,3.3670804500579834
0.23892076669515316,3.36979079246521
0.235258210230741,3.3724617958068848
0.2372115736784275,3.3751702308654785
0.23183982419728966,3.377885103225708
0.2374557441093883,3.380559206008911
0.24014161884995722,3.383267641067505
0.23696740324746668,3.3859763145446777
0.2259797338542302,3.3886568546295166
0.2257355634232694,3.3913421630859375
0.22182883652789642,3.3940882682800293
0.22060798437309237,3.3967792987823486
0.22475888169942615,3.399502754211426
0.226223904285191,3.4021713733673096
0.21279453058234643,3.4048824310302734
0.22231717738981804,3.407588243484497
0.2167012574777194,3.410269260406494
0.21865462092540588,3.4129891395568848
0.2281772677328775,3.41570782661438
0.2284214381638383,3.4183802604675293
0.21572457575387616,3.421069622039795
0.2257355634232694,3.4238193035125732
0.21987547308020994,3.426496982574463
0.2213404956659748,3.4291608333587646
0.23208399462825047,3.4318771362304688
0.23354901721401533,3.4345855712890625
0.22280551825173966,3.4372575283050537
0.22744475643999507,3.440042018890381
0.22256134782077885,3.44283127784729
0.2237821999755829,3.445507049560547
0.23452569893785857,3.448223114013672
0.23452569893785857,3.450892210006714
0.22646807471615182,3.4535939693450928
0.22671224514711263,3.4562976360321045
0.22671224514711263,3.4589686393737793
0.22549139299230858,3.4616341590881348
0.23428152850689776,3.4643781185150146
0.23647906238554506,3.4670422077178955
0.22915394945672074,3.4697155952453613
0.2237821999755829,3.4724209308624268
0.22768892687095588,3.4751312732696533
0.22427054083750453,3.4777984619140625
0.2284214381638383,3.480508327484131
0.23013063118056398,3.4832136631011963
0.22988646074960317,3.4858880043029785
0.21987547308020994,3.488598346710205
0.22695641557807344,3.4912726879119873
0.22256134782077885,3.4940664768218994
0.22646807471615182,3.49678897857666
0.23232816505921128,3.4994523525238037
0.23452569893785857,3.50212025642395
0.22182883652789642,3.504865884780884
0.23354901721401533,3.5075433254241943
0.22646807471615182,3.5102179050445557
0.22890977902575993,3.512984037399292
0.23916493712611397,3.515655755996704
0.24038578928091803,3.5183253288269043
0.2281772677328775,3.5210516452789307
0.23599072152362344,3.523773193359375
0.23013063118056398,3.5264458656311035
0.23086314247344641,3.5291643142700195
0.24136247100476127,3.5318381786346436
0.24136247100476127,3.5345520973205566
0.2303748016115248,3.5372655391693115
0.23232816505921128,3.5399389266967773
0.22768892687095588,3.542609214782715
0.22915394945672074,3.545347213745117
0.2374557441093883,3.5480117797851562
0.23794408497130992,3.5507113933563232
0.23232816505921128,3.5534636974334717
0.23110731290440722,3.5561435222625732
0.2325723354901721,3.5588138103485107
0.23232816505921128,3.5615358352661133
0.24331583445244775,3.5642361640930176
0.2440483457453302,3.566909074783325
0.24062995971187884,3.5696122646331787
0.2328165059211329,3.57228946685791
0.23867659626419235,3.57499623298645
0.23476986936881938,3.577702283859253
0.23892076669515316,3.5803747177124023
0.2423391527286045,3.5830748081207275
0.2423391527286045,3.5857837200164795
0.22964229031864236,3.5884547233581543
0.23916493712611397,3.5911316871643066
0.23354901721401533,3.593879461288452
0.2372115736784275,3.5965490341186523
0.2469783909168599,3.5992238521575928
0.24771090220974235,3.6019387245178223
0.23476986936881938,3.604645013809204
0.24380417531436938,3.607332468032837
0.23647906238554506,3.6100239753723145
0.23818825540227073,3.61270809173584
0.24990843608838964,3.6154537200927734
0.24771090220974235,3.6181344985961914
0.235258210230741,3.620819330215454
0.24380417531436938,3.6235861778259277
0.2418508118666829,3.626263380050659
0.24136247100476127,3.628934383392334
0.25015260651935045,3.631633758544922
0.2491759247955072,3.6343648433685303
0.23916493712611397,3.6370396614074707
0.24038578928091803,3.6397480964660645
0.23818825540227073,3.6424272060394287
0.235258210230741,3.6451239585876465
0.24136247100476127,3.647832155227661
0.23916493712611397,3.650512218475342
0.2372115736784275,3.6538941860198975
0.24014161884995722,3.657255172729492
0.2325723354901721,3.659928560256958
0.235258210230741,3.662599802017212
0.24624587962397748,3.6656322479248047
0.24722256134782072,3.6683051586151123
0.235258210230741,3.670978307723999
0.24136247100476127,3.6737232208251953
0.2372115736784275,3.6766796112060547
0.23843242583323154,3.679365873336792
0.2555243560004883,3.6820590496063232
0.25479184470760585,3.6847591400146484
0.24502502746917343,3.6877644062042236
0.25479184470760585,3.690441608428955
0.24966426565742883,3.693153142929077
0.24942009522646802,3.6958866119384766
0.2599194237577829,3.698826313018799
0.2606519350506653,3.701502561569214
0.24819924307166397,3.704252004623413
0.2530826516908802,3.7071921825408936
0.24771090220974235,3.7098817825317383
0.24990843608838964,3.712599992752075
0.2633378097912342,3.7153055667877197
0.2633378097912342,3.7182483673095703
0.25039677695031126,3.7209584712982178
0.2562568672933707,3.7236788272857666
0.25283848125991937,3.7263548374176025
0.2506409473812721,3.7293314933776855
0.2599194237577829,3.7320003509521484
0.2601635941887437,3.7347826957702637
0.24795507264070316,3.737501859664917
0.25283848125991937,3.7404446601867676
0.2467342204858991,3.7431561946868896
0.2469783909168599,3.745870590209961
0.2577218898791356,3.748812675476074
0.2586985716029788,3.751525402069092
0.2464900500549383,3.7543225288391113
0.25210596996703694,3.756983518600464
0.24844341350262478,3.7599661350250244
0.2491759247955072,3.762645721435547
0.26382615065315584,3.7653493881225586
0.2628494689293126,3.7680578231811523
0.24942009522646802,3.771015167236328
0.2586985716029788,3.773723840713501
0.25430350384568423,3.7764370441436768
0.2538151629837626,3.7791051864624023
0.26407032108411665,3.782050609588623
0.26382615065315584,3.7847900390625
0.2518617995360761,3.7874581813812256
0.2557685264314491,3.790325880050659
0.2513734586741545,3.793137311935425
0.25259431082895856,3.795809030532837
0.2626052984983518,3.7984840869903564
0.26211695763643017,3.8014588356018066
0.24942009522646802,3.804182767868042
0.253326822121841,3.8068485260009766
0.2491759247955072,3.8095648288726807
0.24942009522646802,3.8125123977661133
0.25967525332682206,3.8152260780334473
0.25967525332682206,3.817931890487671
0.2491759247955072,3.820613145828247
0.25283848125991937,3.823667526245117
0.24795507264070316,3.826364278793335
0.2469783909168599,3.829033374786377
0.25943108289586125,3.831754207611084
0.25967525332682206,3.8347384929656982
0.24819924307166397,3.8374176025390625
0.25210596996703694,3.8401222229003906
0.25039677695031126,3.8430988788604736
0.2538151629837626,3.845771551132202
0.26577951410084233,3.848498821258545
0.26651202539372476,3.8511734008789062
0.25967525332682206,3.8541574478149414
0.26138444634354774,3.856870174407959
0.2562568672933707,3.859546184539795
0.25479184470760585,3.8622148036956787
0.2655353436698815,3.865212917327881
0.26602368453180314,3.8678853511810303
0.25698937858625315,3.8705575466156006
0.2579660603100964,3.873310089111328
0.2552801855695275,3.876258373260498
0.2518617995360761,3.8789288997650146
0.26187278720546936,3.881643056869507
0.2606519350506653,3.8846216201782227
0.25210596996703694,3.8873050212860107
0.25430350384568423,3.8899943828582764
0.2535709925528018,3.892664670944214
0.25259431082895856,3.895674228668213
0.2633378097912342,3.8983519077301025
0.2608961054816261,3.901050090789795
0.2535709925528018,3.9037892818450928
0.2540593334147234,3.9067327976226807
0.25039677695031126,3.9094040393829346
0.24966426565742883,3.9121203422546387
0.2586985716029788,3.91483736038208
0.2586985716029788,3.917785406112671
0.25039677695031126,3.9204981327056885
0.2508851178122329,3.9232139587402344
0.25039677695031126,3.926162004470825
0.24819924307166397,3.9288792610168457
0.25918691246490044,3.9315507411956787
0.25698937858625315,3.934251070022583
0.24771090220974235,3.9372410774230957
0.24819924307166397,3.9399149417877197
0.2508851178122329,3.9425737857818604
0.24624587962397748,3.9453141689300537
0.2540593334147234,3.9482576847076416
0.2530826516908802,3.9509220123291016
0.2467342204858991,3.953685998916626
0.24624587962397748,3.956354856491089
0.24600170919301667,3.959313154220581
0.244292516176291,3.962007999420166
0.25283848125991937,3.9647178649902344
0.2516176291051153,3.9675421714782715
0.2467342204858991,3.970346450805664
0.24526919790013424,3.9730517864227295
0.2445366866072518,3.975767135620117
0.24160664143572208,3.9787111282348633
0.2530826516908802,3.9813857078552246
0.25235014039799775,3.9841232299804688
0.24771090220974235,3.986807107925415
0.24307166402148694,3.989755153656006
0.2469783909168599,3.99247407913208
0.244292516176291,3.9952023029327393
0.2530826516908802,3.99786639213562
0.25210596996703694,4.000840663909912
0.24819924307166397,4.003555059432983
0.24307166402148694,4.006231784820557
0.24380417531436938,4.008946180343628
0.2423391527286045,4.011878967285156
0.2552801855695275,4.0145933628082275
0.2560126968624099,4.017298221588135
0.2555243560004883,4.020237684249878
0.25039677695031126,4.02294397354126
0.2538151629837626,4.025672197341919
0.25039677695031126,4.028342962265015
0.25723354901721396,4.031308889389038
0.2586985716029788,4.034044504165649
0.25479184470760585,4.036721229553223
0.24795507264070316,4.0394299030303955
0.24966426565742883,4.042388916015625
0.24624587962397748,4.04510235786438
0.25210596996703694,4.047807931900024
0.2518617995360761,4.05047607421875
0.24746673177878153,4.0536699295043945
0.2440483457453302,4.056398153305054
0.24526919790013424,4.059074878692627
0.24258332315956532,4.062015533447266
0.2557685264314491,4.064760446548462
0.25039677695031126,4.067427635192871
0.2469783909168599,4.0701000690460205
0.2423391527286045,4.0731165409088135
0.24307166402148694,4.075791835784912
0.24307166402148694,4.078465938568115
0.25479184470760585,4.081178665161133
0.2582102307410572,4.084153175354004
0.2557685264314491,4.086829900741577
0.24990843608838964,4.089548349380493
0.25235014039799775,4.092216730117798
0.24819924307166397,4.095194339752197
0.2557685264314491,4.097907543182373
0.25479184470760585,4.1005699634552
0.2508851178122329,4.103555917739868
0.24502502746917343,4.106236219406128
0.24722256134782072,4.108908414840698
0.24331583445244775,4.111606597900391
0.2518617995360761,4.1146039962768555
0.25479184470760585,4.117275953292847
0.25039677695031126,4.119990348815918
0.24258332315956532,4.1226630210876465
0.24819924307166397,4.125667333602905
0.24575753876205586,4.128389358520508
0.2511292882431937,4.131061553955078
0.25283848125991937,4.133768558502197
0.2491759247955072,4.136767387390137
0.2423391527286045,4.139446973800659
0.24624587962397748,4.142124176025391
0.2420949822976437,4.145136594772339
0.24990843608838964,4.1478259563446045
0.2508851178122329,4.150489568710327
0.24844341350262478,4.15323805809021
0.23916493712611397,4.1561830043792725
0.24307166402148694,4.158861398696899
0.2398974484189964,4.1615681648254395
0.24722256134782072,4.164375066757202
0.2530826516908802,4.167335748672485
0.24819924307166397,4.170034170150757
0.2423391527286045,4.172704696655273
0.2508851178122329,4.175441265106201
0.2467342204858991,4.178398132324219
0.2511292882431937,4.181071758270264
0.25283848125991937,4.18380880355835
0.24819924307166397,4.186747312545776
0.24038578928091803,4.189422369003296
0.24600170919301667,4.192142486572266
0.24062995971187884,4.1948511600494385
0.2440483457453302,4.197802543640137
0.24624587962397748,4.2005157470703125
0.24502502746917343,4.203235864639282
0.23550238066170182,4.20590353012085
0.24111830057380046,4.208904504776001
0.24014161884995722,4.211589336395264
0.24624587962397748,4.214306592941284
0.24746673177878153,4.217024803161621
0.24844341350262478,4.219982624053955
0.2396532779880356,4.222660064697266
0.2445366866072518,4.225414991378784
0.24062995971187884,4.228093147277832
0.24526919790013424,4.231041431427002
0.25039677695031126,4.2338104248046875
0.2440483457453302,4.2364866733551025
0.23403735807593695,4.23946475982666
0.2396532779880356,4.242142677307129
0.2372115736784275,4.244844913482666
0.2440483457453302,4.247555494308472
0.2464900500549383,4.250504493713379
0.24551336833109505,4.253260374069214
0.23623489195458425,4.2559731006622314
0.2440483457453302,4.258652448654175
0.23940910755707479,4.2616002559661865
0.24526919790013424,4.26442289352417
0.24819924307166397,4.267093896865845
0.2464900500549383,4.269765377044678
0.23623489195458425,4.272734880447388
0.24087413014283965,4.275439023971558
0.2374557441093883,4.278107404708862
0.24111830057380046,4.281092882156372
0.24502502746917343,4.2838029861450195
0.244292516176291,4.286474943161011
0.2350140397997802,4.289173126220703
0.24136247100476127,4.292119264602661
0.23696740324746668,4.2948267459869385
0.24136247100476127,4.297536849975586
0.24819924307166397,4.30020546913147
0.23794408497130992,4.3039939403533936
0.23647906238554506,4.306664943695068
0.23647906238554506,4.309337139129639
0.2328165059211329,4.312052011489868
0.24111830057380046,4.314758539199829
0.24136247100476127,4.31742262840271
0.24014161884995722,4.320140838623047
0.2330606763520937,4.322834253311157
0.23843242583323154,4.325521945953369
0.23354901721401533,4.328239440917969
0.23843242583323154,4.330909013748169
0.24307166402148694,4.333617687225342
0.24136247100476127,4.336336851119995
0.22890977902575993,4.339003324508667
0.23916493712611397,4.3416783809661865
0.23354901721401533,4.344423055648804
0.2374557441093883,4.347095251083374
0.2469783909168599,4.349767684936523
0.24722256134782072,4.352484464645386
0.23354901721401533,4.35521388053894
0.2420949822976437,4.357886552810669
0.23476986936881938,4.3605875968933105
0.23550238066170182,4.3632988929748535
0.2469783909168599,4.365971803665161
0.24722256134782072,4.368687152862549
0.2374557441093883,4.371356010437012
0.24258332315956532,4.374061584472656
0.2398974484189964,4.3767781257629395
0.23330484678305452,4.379446506500244
0.24136247100476127,4.382114410400391
0.24160664143572208,4.3848583698272705
0.2328165059211329,4.3875250816345215
0.23452569893785857,4.3901989459991455
0.23550238066170182,4.392937183380127
0.22988646074960317,4.395616292953491
0.23696740324746668,4.398283243179321
0.23599072152362344,4.400994539260864
0.2306189720424856,4.403700590133667
0.226223904285191,4.406379699707031
0.23232816505921128,4.409093618392944
0.2303748016115248,4.411772012710571
0.2396532779880356,4.414492845535278
0.2440483457453302,4.417200565338135
0.24258332315956532,4.419865369796753
0.2325723354901721,4.42253851890564
0.23940910755707479,4.425276041030884
0.23794408497130992,4.427955627441406
0.24844341350262478,4.4306275844573975
0.25430350384568423,4.433377027511597
0.2582102307410572,4.4360411167144775
0.24502502746917343,4.438722610473633
0.2530826516908802,4.441469669342041
0.24526919790013424,4.444265127182007
0.23623489195458425,4.446935176849365
0.24038578928091803,4.44965124130249
0.2374557441093883,4.4523138999938965
0.22744475643999507,4.455029249191284
0.23452569893785857,4.457738399505615
0.22964229031864236,4.460413694381714
0.22964229031864236,4.463115453720093
0.24062995971187884,4.465863227844238
0.24038578928091803,4.46854043006897
0.2303748016115248,4.4712135791778564
0.23428152850689776,4.4739720821380615
0.23232816505921128,4.476653099060059
0.23403735807593695,4.479351282119751
0.24966426565742883,4.482046842575073
0.2491759247955072,4.484755277633667
0.24380417531436938,4.487469673156738
0.24380417531436938,4.490146636962891
0.24526919790013424,4.492853879928589
0.24526919790013424,4.495569467544556
0.2579660603100964,4.498241424560547
0.2577218898791356,4.500913619995117
0.2599194237577829,4.503736972808838
0.25479184470760585,4.506407022476196
0.262361128067391,4.509071588516235
0.25723354901721396,4.511781215667725
0.2626052984983518,4.514480352401733
0.2648028323769991,4.517145395278931
0.2633378097912342,4.5198585987091064
0.25015260651935045,4.522512435913086
0.25698937858625315,4.5252134799957275
0.2516176291051153,4.527929782867432
0.2540593334147234,4.530604124069214
0.2630936393602734,4.533308744430542
0.2626052984983518,4.536012649536133
0.2508851178122329,4.538676738739014
0.25698937858625315,4.5413336753845215
0.2489317543645464,4.544077157974243
0.24795507264070316,4.546759605407715
0.253326822121841,4.54941987991333
0.2535709925528018,4.552124261856079
0.24795507264070316,4.554826021194458
0.25430350384568423,4.557488441467285
0.24844341350262478,4.560195207595825
0.253326822121841,4.562892913818359
0.2694420705652545,4.565563201904297
0.26822121841045043,4.568262815475464
0.26407032108411665,4.570936679840088
0.26626785496276395,4.573634624481201
0.26382615065315584,4.5763421058654785
0.2696862409962153,4.579012870788574
0.2882431937492369,4.581678628921509
0.2882431937492369,4.584420680999756
0.2970333292638261,4.587087392807007
0.29385911366133555,4.589759588241577
0.29581247710902203,4.592469930648804
0.28897570504211934,4.595200777053833
0.2909290684898058,4.597904682159424
0.2931266023684531,4.600616216659546
0.2921499206446099,4.603312730789185
0.2811622512513734,4.605981826782227
0.27994139909656934,4.608691930770874
0.272616286167745,4.6113622188568115
0.271395434012941,4.614062547683716
0.2762788426321572,4.6167755126953125
0.27115126358198016,4.619441270828247
0.2601635941887437,4.622107744216919
0.27359296789158827,4.624843597412109
0.26846538884141125,4.627537250518799
0.27066292272005854,4.63020658493042
0.2787205469417653,4.632967710494995
0.27530216090831394,4.635636806488037
0.2652911732389207,4.638307809829712
0.2740813087535099,4.6410181522369385
0.27041875228909773,4.6437249183654785
0.2633378097912342,4.64639139175415
0.2655353436698815,4.649102210998535
0.2626052984983518,4.651758670806885
0.2555243560004883,4.654460906982422
0.2577218898791356,4.657172441482544
0.2608961054816261,4.659844875335693
0.2540593334147234,4.662503242492676
0.25894274203393963,4.6652631759643555
0.25747771944817477,4.6679322719573975
0.25454767427664504,4.6705992221832275
0.2540593334147234,4.673340797424316
0.2562568672933707,4.6760125160217285
0.24746673177878153,4.678679704666138
0.24624587962397748,4.6813929080963135
0.24722256134782072,4.684093236923218
0.24478085703821262,4.686758995056152
0.23452569893785857,4.689469337463379
0.24307166402148694,4.692139625549316
0.23867659626419235,4.694921255111694
0.24111830057380046,4.697635173797607
0.24331583445244775,4.700301170349121
0.24258332315956532,4.703009843826294
0.22964229031864236,4.705719947814941
0.23599072152362344,4.708386421203613
0.23452569893785857,4.711053371429443
0.24502502746917343,4.713831186294556
0.2540593334147234,4.716493844985962
0.26187278720546936,4.719179630279541
0.2518617995360761,4.721890211105347
0.25894274203393963,4.724596977233887
0.25259431082895856,4.727272987365723
0.2586985716029788,4.730003118515015
0.25918691246490044,4.732665300369263
0.26846538884141125,4.735388994216919
0.25943108289586125,4.738081693649292
0.2628494689293126,4.740750074386597
0.2582102307410572,4.743481159210205
0.2560126968624099,4.746158123016357
0.2672445366866072,4.7488203048706055
0.26602368453180314,4.7515199184417725
0.2560126968624099,4.754215240478516
0.25430350384568423,4.756884336471558
0.2511292882431937,4.759597063064575
0.23867659626419235,4.7622692584991455
0.24526919790013424,4.7649712562561035
0.2469783909168599,4.767689943313599
0.253326822121841,4.770354986190796
0.24624587962397748,4.773124694824219
0.2513734586741545,4.775832414627075
0.24819924307166397,4.778503894805908
0.2562568672933707,4.78117823600769
0.2611402759125869,4.783923625946045
0.26162861677450855,4.786586046218872
0.2518617995360761,4.789258718490601
0.24551336833109505,4.791971445083618
0.23818825540227073,4.79468297958374
0.22890977902575993,4.79734992980957
0.22964229031864236,4.800063133239746
0.22475888169942615,4.802731990814209
0.21279453058234643,4.805437803268433
0.22768892687095588,4.80814266204834
0.221096325235014,4.810810089111328
0.22085215480405318,4.813506364822388
0.23476986936881938,4.816218614578247
0.2325723354901721,4.818889379501343
0.22890977902575993,4.821563482284546
0.23623489195458425,4.824299335479736
0.24331583445244775,4.826976776123047
0.23940910755707479,4.829653978347778
0.24819924307166397,4.832378149032593
0.2491759247955072,4.835107326507568
0.2423391527286045,4.8377768993377686
0.24307166402148694,4.840484857559204
0.2423391527286045,4.843183517456055
0.23403735807593695,4.8458616733551025
0.23623489195458425,4.848582029342651
0.23794408497130992,4.8512609004974365
0.23940910755707479,4.853966474533081
0.23476986936881938,4.8566789627075195
0.23550238066170182,4.859351634979248
0.2284214381638383,4.86202335357666
0.22646807471615182,4.8647661209106445
0.2279330973019167,4.8674397468566895
0.2257355634232694,4.870110511779785
0.2188987913563667,4.872839689254761
0.22866560859479912,4.875509262084961
0.22744475643999507,4.87817907333374
0.2372115736784275,4.88088846206665
0.24111830057380046,4.883591413497925
0.25039677695031126,4.886258363723755
0.2374557441093883,4.888965845108032
0.2506409473812721,4.89163613319397
0.2423391527286045,4.894338607788086
0.24062995971187884,4.8970558643341064
0.2555243560004883,4.899723768234253
0.24966426565742883,4.902403831481934
0.25015260651935045,4.905136823654175
0.24331583445244775,4.907806634902954
0.24038578928091803,4.910479784011841
0.23135148333536804,4.9132399559021
0.22549139299230858,4.915913820266724
0.22720058600903426,4.918587684631348
0.22060798437309237,4.921293497085571
0.2284214381638383,4.923998594284058
0.22964229031864236,4.92667818069458
0.221096325235014,4.929401636123657
0.21401538273715048,4.93207859992981
0.2123061897204248,4.93479585647583
0.20913197411793427,4.9375104904174805
0.20815529239409103,4.940207004547119
0.21865462092540588,4.942920207977295
0.2257355634232694,4.945639133453369
0.24795507264070316,4.948316812515259
0.2530826516908802,4.950987100601196
0.2491759247955072,4.953749895095825
0.24356000488340857,4.95642876625061
0.2489317543645464,4.9591004848480225
0.2604077646197045,4.961812734603882
0.276523013063118,4.96451210975647
0.2811622512513734,4.967180013656616
0.30777682822610175,4.969889402389526
0.29898669271151257,4.972559213638306
0.3043584421926504,4.975274324417114
0.294591624954218,4.977990627288818
0.28433646685386393,4.980665445327759
0.28482480771578556,4.983389854431152
0.2770113539250396,4.986087322235107
0.2645586619460383,4.988755941390991
0.28506897814674637,4.991464853286743
0.2794530582346477,4.994165897369385
0.2745696496154315,4.996835708618164
0.2860456598705896,4.9995434284210205
0.2838481259919423,5.002210855484009
0.27041875228909773,5.004915714263916
0.2767671834940788,5.007625341415405
0.2716396044439018,5.010298728942871
0.27823220607984367,5.012995719909668
0.2887315346111585,5.01570987701416
0.2879990233182761,5.01837944984436
0.28213893297521664,5.0210535526275635
0.27749969478696124,5.023800849914551
0.27310462702966665,5.026477813720703
0.2672445366866072,5.029162406921387
0.2648028323769991,5.031887531280518
0.2650470028079599,5.034597396850586
0.2557685264314491,5.037272691726685
0.25015260651935045,5.039973020553589
0.2530826516908802,5.042644500732422
0.2626052984983518,5.045348882675171
0.2626052984983518,5.048065900802612
0.2655353436698815,5.050732135772705
0.26407032108411665,5.053440093994141
0.2628494689293126,5.056150197982788
0.2696862409962153,5.058820009231567
0.2626052984983518,5.061486482620239
0.25210596996703694,5.064224481582642
0.25894274203393963,5.066889047622681
0.2538151629837626,5.069560289382935
0.2445366866072518,5.072267293930054
0.26211695763643017,5.074994802474976
0.2582102307410572,5.07765793800354
0.2608961054816261,5.080367803573608
0.26870955927237206,5.083066940307617
0.2672445366866072,5.085736036300659
0.2582102307410572,5.088444948196411
0.2611402759125869,5.091118097305298
0.25747771944817477,5.094038486480713
0.25967525332682206,5.096758127212524
0.2882431937492369,5.099431753158569
0.2882431937492369,5.102102518081665
0.2923940910755707,5.104843854904175
0.3019167378830423,5.107518196105957
0.2967891588328653,5.11019229888916
0.2950799658161396,5.112938404083252
0.29141740935172744,5.11561131477356
0.28702234159443285,5.118288040161133
0.2811622512513734,5.120997905731201
0.2743254791844707,5.12370228767395
0.27115126358198016,5.1263720989227295
0.2599194237577829,5.129084348678589
0.25967525332682206,5.131770372390747
0.26187278720546936,5.134474515914917
0.26187278720546936,5.137187719345093
0.2577218898791356,5.139854192733765
0.2606519350506653,5.14252233505249
0.25283848125991937,5.145259857177734
0.2562568672933707,5.147918939590454
0.2670003662556464,5.150582551956177
0.26870955927237206,5.153321027755737
0.25698937858625315,5.155990362167358
0.2738371383225491,5.158660173416138
0.267488707117568,5.1613640785217285
0.2743254791844707,5.1640801429748535
0.2811622512513734,5.16675591468811
0.2809180808204126,5.169469594955444
0.2723721157367842,5.17214035987854
0.2694420705652545,5.174847602844238
0.26651202539372476,5.177557468414307
0.27749969478696124,5.180229425430298
0.28433646685386393,5.18293309211731
0.29141740935172744,5.185647964477539
0.28189476254425583,5.18831205368042
0.285557319008668,5.1909778118133545
0.28946404590404096,5.193737506866455
0.2794530582346477,5.19640326499939
0.2931266023684531,5.199075222015381
0.29385911366133555,5.201783180236816
0.2928824319374923,5.204492807388306
0.29141740935172744,5.207160234451294
0.2950799658161396,5.209875106811523
0.28482480771578556,5.212536811828613
0.27749969478696124,5.215237379074097
0.27554633133927475,5.217947721481323
0.2672445366866072,5.220617771148682
0.26162861677450855,5.2233357429504395
0.25259431082895856,5.226023435592651
0.24526919790013424,5.228689432144165
0.23818825540227073,5.231438636779785
0.2420949822976437,5.234166145324707
0.2374557441093883,5.236840009689331
0.22964229031864236,5.239548206329346
0.24990843608838964,5.242227077484131
0.24990843608838964,5.244935512542725
0.2508851178122329,5.247639417648315
0.2606519350506653,5.250310897827148
0.26187278720546936,5.253014802932739
0.2491759247955072,5.255725860595703
0.25430350384568423,5.258396863937378
0.24624587962397748,5.261067628860474
0.24380417531436938,5.2638161182403564
0.2538151629837626,5.266775608062744
0.24819924307166397,5.270517826080322
0.24575753876205586,5.274101734161377
0.2518617995360761,5.276930332183838
0.24526919790013424,5.279744625091553
0.25747771944817477,5.283001899719238
0.2599194237577829,5.286132097244263
0.24746673177878153,5.288959741592407
0.25015260651935045,5.291663408279419
0.244292516176291,5.2948315143585205
0.23916493712611397,5.298019647598267
0.2440483457453302,5.300958871841431
0.2396532779880356,5.304180145263672
0.23867659626419235,5.30720853805542
0.2538151629837626,5.310274600982666
0.2518617995360761,5.3134894371032715
0.2626052984983518,5.316532611846924
0.258454401172018,5.319654226303101
0.24722256134782072,5.322725772857666
0.2630936393602734,5.325689792633057
0.25967525332682206,5.3287928104400635
0.25943108289586125,5.3317811489105225
0.2611402759125869,5.3363025188446045
0.25283848125991937,5.3392863273620605
0.2565010377243315,5.3421056270599365
0.24990843608838964,5.345557689666748
0.2652911732389207,5.348747968673706
0.2655353436698815,5.351602077484131
0.26138444634354774,5.354755163192749
0.2655353436698815,5.357985258102417
0.26211695763643017,5.361066818237305
0.25503601513856666,5.36424994468689
0.26211695763643017,5.367016315460205
0.2538151629837626,5.370111465454102
0.25503601513856666,5.373610496520996
0.28189476254425583,5.376596927642822
0.28018556952753015,5.379644393920898
0.2933707727994139,5.38268518447876
0.29605664753998284,5.386239051818848
0.28238310340617745,5.389267206192017
0.29874252228055176,5.392429351806641
0.2931266023684531,5.395799160003662
0.29874252228055176,5.398867130279541
0.2999633744353558,5.40186071395874
0.29141740935172744,5.405454874038696
0.2933707727994139,5.40852689743042
0.28897570504211934,5.409966468811035
0.2840922964229031,5.411503791809082
0.28482480771578556,5.413257360458374
0.2909290684898058,5.414750814437866
0.28946404590404096,5.416378021240234
0.29581247710902203,5.417875289916992
0.2953241362471004,5.419252634048462
0.28921987547308015,5.420858383178711
0.28482480771578556,5.422424077987671
0.285557319008668,5.424135446548462
0.28433646685386393,5.425516843795776
0.2792088878036869,5.427005290985107
0.27359296789158827,5.428494930267334
0.26602368453180314,5.430025100708008
0.267488707117568,5.431594133377075
0.2652911732389207,5.433424711227417
0.267488707117568,5.434991836547852
0.2626052984983518,5.436555862426758
0.25674520815529234,5.438117504119873
0.25943108289586125,5.439739942550659
0.26577951410084233,5.441314935684204
0.2626052984983518,5.44292426109314
0.2652911732389207,5.444742679595947
0.271395434012941,5.446178436279297
0.27530216090831394,5.447837829589844
0.27749969478696124,5.449442386627197
0.2748138200463923,5.450879812240601
0.2794530582346477,5.452393293380737
0.2794530582346477,5.454118013381958
0.2811622512513734,5.455684423446655
0.28506897814674637,5.457258462905884
0.2877548528873153,5.458666801452637
0.2882431937492369,5.460041522979736
0.2831156146990599,5.461653232574463
0.2743254791844707,5.463475465774536
0.2809180808204126,5.464931964874268
0.2794530582346477,5.466295957565308
0.2840922964229031,5.467778205871582
0.29410328409229636,5.469273090362549
0.28726651202539366,5.470808982849121
0.28433646685386393,5.472390174865723
0.2882431937492369,5.474241018295288
0.2860456598705896,5.475807189941406
0.2831156146990599,5.477322578430176
0.27530216090831394,5.478867292404175
0.2833597851300207,5.480483293533325
0.3019167378830423,5.48201847076416
0.3019167378830423,5.483879327774048
0.31046270296667067,5.48545241355896
0.30557929434745446,5.4868834018707275
0.29581247710902203,5.4885852336883545
0.2977658405567085,5.490166902542114
0.3002075448663166,5.491588354110718
0.2970333292638261,5.493395566940308
0.2953241362471004,5.49485445022583
0.29654498840190446,5.496289968490601
0.30264924917592473,5.49763560295105
0.3089976803809058,5.4989728927612305
0.30753265779514094,5.500305891036987
0.308753509949945,5.501640558242798
0.304846783054572,5.503178358078003
0.3019167378830423,5.504539251327515
0.30069588572823824,5.5058753490448
0.3041142717616896,5.507214784622192
0.30264924917592473,5.50855016708374
0.29898669271151257,5.510225057601929
0.29825418141863014,5.513247728347778
0.30118422659015986,5.515929460525513
0.30118422659015986,5.518592834472656
0.2970333292638261,5.521296739578247
0.2933707727994139,5.5242838859558105
0.28946404590404096,5.526962041854858
0.299719204004395,5.529672384262085
0.32340373580759363,5.532351970672607
0.32438041753143687,5.535383939743042
0.3221828836527896,5.538081645965576
0.317787815895495,5.540755748748779
0.31729947503357336,5.543839454650879
0.30557929434745446,5.546516180038452
0.30557929434745446,5.549192667007446
0.30264924917592473,5.55190110206604
0.2928824319374923,5.554927349090576
0.2901965571969234,5.557599067687988
0.28287144426809907,5.560307264328003
0.2789647173727261,5.563295125961304
0.294591624954218,5.565976619720459
0.2921499206446099,5.568695068359375
0.2899523867659626,5.571407318115234
0.28433646685386393,5.57440185546875
0.2831156146990599,5.577117204666138
0.281650592113295,5.579784154891968
0.2879990233182761,5.5824573040008545
0.28726651202539366,5.58547830581665
0.2809180808204126,5.588163137435913
0.27774386521792205,5.590831518173218
0.276523013063118,5.5938591957092285
0.27530216090831394,5.596539497375488
0.28677817116347204,5.599213361740112
0.285557319008668,5.6019206047058105
0.27579050177023556,5.604903936386108
0.2784763765108045,5.6076085567474365
0.27530216090831394,5.610285043716431
0.27579050177023556,5.613250494003296
0.2716396044439018,5.615970134735107
0.2696862409962153,5.618635177612305
0.2579660603100964,5.6213037967681885
0.2560126968624099,5.62429404258728
0.2599194237577829,5.626975059509277
0.2582102307410572,5.629638195037842
0.2630936393602734,5.63235330581665
0.26407032108411665,5.635391712188721
0.26138444634354774,5.638074159622192
0.2628494689293126,5.640788555145264
0.26382615065315584,5.643505334854126
0.26358198022219503,5.646456718444824
0.2677328775485288,5.649165153503418
0.2652911732389207,5.651836633682251
0.2586985716029788,5.654545783996582
0.25210596996703694,5.657523155212402
0.24819924307166397,5.660198211669922
0.2440483457453302,5.662923097610474
0.2508851178122329,5.665910005569458
0.2516176291051153,5.668585300445557
0.24624587962397748,5.671263217926025
0.24502502746917343,5.674032926559448
0.2506409473812721,5.676981687545776
0.2489317543645464,5.679698705673218
0.24966426565742883,5.682377576828003
0.2467342204858991,5.685074090957642
0.2445366866072518,5.68806529045105
0.24087413014283965,5.690733194351196
0.2418508118666829,5.6934425830841064
0.23818825540227073,5.696154356002808
0.2518617995360761,5.699092626571655
0.25235014039799775,5.701768159866333
0.2511292882431937,5.704505205154419
0.2469783909168599,5.707454442977905
0.2601635941887437,5.710138559341431
0.26187278720546936,5.712886333465576
0.272616286167745,5.715557098388672
0.27310462702966665,5.7185022830963135
0.26870955927237206,5.72121787071228
0.26602368453180314,5.723929405212402
0.2630936393602734,5.726600408554077
0.2530826516908802,5.729576826095581
0.25283848125991937,5.732257127761841
0.25235014039799775,5.7350828647613525
0.25039677695031126,5.737809419631958
0.24624587962397748,5.740763902664185
0.24624587962397748,5.743550539016724
0.24258332315956532,5.746229648590088
0.2538151629837626,5.749169826507568
0.25479184470760585,5.751884937286377
0.25479184470760585,5.75459623336792
0.2530826516908802,5.757260799407959
0.2535709925528018,5.760242938995361
0.25894274203393963,5.7629454135894775
0.272616286167745,5.765620470046997
0.2718837748748626,5.768326282501221
0.27530216090831394,5.771271705627441
0.271395434012941,5.773981332778931
0.27579050177023556,5.776695251464844
0.27066292272005854,5.779357433319092
0.2767671834940788,5.782320022583008
0.2770113539250396,5.7850706577301025
0.272616286167745,5.787745237350464
0.2655353436698815,5.790694713592529
0.26822121841045043,5.793530464172363
0.26211695763643017,5.796197891235352
0.26651202539372476,5.798862934112549
0.26846538884141125,5.80184531211853
0.2633378097912342,5.804555654525757
0.2577218898791356,5.807222843170166
0.25894274203393963,5.809930801391602
0.2538151629837626,5.812909841537476
0.25747771944817477,5.815625429153442
0.25698937858625315,5.8182899951934814
0.24966426565742883,5.8212456703186035
0.24307166402148694,5.823995351791382
0.25015260651935045,5.826663970947266
0.24819924307166397,5.8293328285217285
0.25479184470760585,5.832299709320068
0.2557685264314491,5.835026025772095
0.25210596996703694,5.837706565856934
0.2440483457453302,5.840428113937378
0.24526919790013424,5.843420743942261
0.23867659626419235,5.846092700958252
0.2372115736784275,5.848802089691162
0.2398974484189964,5.851474761962891
0.23403735807593695,5.854463577270508
0.22671224514711263,5.857173681259155
0.23476986936881938,5.859846830368042
0.2281772677328775,5.8628199100494385
0.24575753876205586,5.86553955078125
0.2538151629837626,5.868218660354614
0.26675619582468557,5.870885372161865
0.25698937858625315,5.873898983001709
0.26138444634354774,5.876582145690918
0.2560126968624099,5.879250764846802
0.2582102307410572,5.88195538520813
0.2608961054816261,5.884929418563843
0.25967525332682206,5.887640476226807
0.24819924307166397,5.89030909538269
0.2538151629837626,5.893016576766968
0.2489317543645464,5.8960065841674805
0.2530826516908802,5.898680210113525
0.2577218898791356,5.901347637176514
0.25723354901721396,5.904283046722412
0.24624587962397748,5.907026767730713
0.25210596996703694,5.909693956375122
0.24966426565742883,5.912403583526611
0.2582102307410572,5.9154112339019775
0.2648028323769991,5.918084144592285
0.2645586619460383,5.920795679092407
0.2535709925528018,5.923547983169556
0.2672445366866072,5.926501512527466
0.2626052984983518,5.92921781539917
0.26382615065315584,5.9318859577178955
0.26675619582468557,5.9345862865448
0.262361128067391,5.937590599060059
0.2516176291051153,5.940263748168945
0.25747771944817477,5.942969083786011
0.2518617995360761,5.945672273635864
0.2555243560004883,5.948619842529297
0.26162861677450855,5.95130729675293
0.2557685264314491,5.95403528213501
0.24307166402148694,5.956982851028442
0.2538151629837626,5.959696531295776
0.24795507264070316,5.9623777866363525
0.2489317543645464,5.965088844299316
0.2552801855695275,5.968063116073608
0.25503601513856666,5.970739126205444
0.24307166402148694,5.973443984985352
0.24990843608838964,5.9761598110198975
0.24380417531436938,5.9798712730407715
0.2538151629837626,5.98254132270813
0.2538151629837626,5.985289573669434
0.2491759247955072,5.9879677295684814
0.2418508118666829,5.990638256072998
0.24575753876205586,5.993391513824463
0.24136247100476127,5.996056795120239
0.24966426565742883,5.998732566833496
0.2560126968624099,6.001459121704102
0.2560126968624099,6.004162549972534
0.2445366866072518,6.006831884384155
0.25283848125991937,6.009541034698486
0.24502502746917343,6.012213945388794
0.2469783909168599,6.014925479888916
0.25747771944817477,6.01763916015625
0.2562568672933707,6.020306587219238
0.24258332315956532,6.023008823394775
0.2511292882431937,6.025714159011841
0.24380417531436938,6.02838659286499
0.2418508118666829,6.031061887741089
0.25039677695031126,6.0338146686553955
0.25039677695031126,6.036489248275757
0.24258332315956532,6.039171457290649
0.24624587962397748,6.0418853759765625
0.2398974484189964,6.0445990562438965
0.23110731290440722,6.047293424606323
0.23794408497130992,6.049989223480225
0.2374557441093883,6.052659749984741
0.2284214381638383,6.055383920669556
0.2306189720424856,6.058078289031982
0.22890977902575993,6.060749053955078
0.22768892687095588,6.063495397567749
0.23843242583323154,6.066164970397949
0.2372115736784275,6.068838357925415
0.23208399462825047,6.07154393196106
0.22646807471615182,6.074251651763916
0.22890977902575993,6.076926946640015
0.22744475643999507,6.079644203186035
0.235258210230741,6.082312107086182
0.23647906238554506,6.085014343261719
0.23379318764497614,6.0877227783203125
0.2237821999755829,6.090399980545044
0.2325723354901721,6.093103647232056
0.2281772677328775,6.095824718475342
0.23232816505921128,6.098496675491333
0.23916493712611397,6.101171493530273
0.23867659626419235,6.103906631469727
0.2257355634232694,6.106570482254028
0.23452569893785857,6.109235048294067
0.22768892687095588,6.111945629119873
0.22866560859479912,6.1146485805511475
0.23940910755707479,6.117321491241455
0.24014161884995722,6.120035171508789
0.226223904285191,6.122711896896362
0.23476986936881938,6.125404119491577
0.2284214381638383,6.128114223480225
0.23013063118056398,6.130781650543213
0.24087413014283965,6.133699655532837
0.24136247100476127,6.136419773101807
0.22915394945672074,6.139094352722168
0.23354901721401533,6.141761302947998
0.23013063118056398,6.1445207595825195
0.22890977902575993,6.147191286087036
0.2372115736784275,6.149863004684448
0.23647906238554506,6.152569770812988
0.22768892687095588,6.1552958488464355
0.2281772677328775,6.157967805862427
0.22939811988768155,6.160686254501343
0.2284214381638383,6.163403749465942
0.2440483457453302,6.166081666946411
0.24551336833109505,6.168797016143799
0.24331583445244775,6.171474933624268
0.2374557441093883,6.174180030822754
0.2418508118666829,6.176898956298828
0.23818825540227073,6.179570913314819
0.2440483457453302,6.182248830795288
0.24771090220974235,6.184991359710693
0.24600170919301667,6.1876678466796875
0.23403735807593695,6.1903369426727295
0.2420949822976437,6.193080425262451
0.2374557441093883,6.195752382278442
0.23940910755707479,6.198432445526123
0.2467342204858991,6.201143026351929
0.2467342204858991,6.20385217666626
0.23354901721401533,6.206524133682251
0.2418508118666829,6.209246397018433
0.2350140397997802,6.211921453475952
0.23599072152362344,6.214633226394653
0.24600170919301667,6.217349052429199
0.24624587962397748,6.220029592514038
0.23403735807593695,6.2226996421813965
0.24062995971187884,6.225436210632324
0.235258210230741,6.22809910774231
0.23550238066170182,6.230776786804199
0.24624587962397748,6.233526229858398
0.2467342204858991,6.236199378967285
0.2374557441093883,6.2388763427734375
0.2396532779880356,6.241597652435303
0.23818825540227073,6.244311332702637
0.235258210230741,6.2469847202301025
0.24526919790013424,6.249696493148804
0.2440483457453302,6.252373695373535
0.23892076669515316,6.25507378578186
0.23550238066170182,6.257806777954102
0.23672323281650587,6.2604780197143555
0.23330484678305452,6.26319146156311
0.24038578928091803,6.265902996063232
0.24136247100476127,6.268610954284668
0.23940910755707479,6.271296739578247
0.23086314247344641,6.274046182632446
0.23647906238554506,6.2767157554626465
0.2325723354901721,6.27942419052124
0.2372115736784275,6.2820963859558105
0.24258332315956532,6.284799575805664
0.24331583445244775,6.287504196166992
0.2303748016115248,6.290183782577515
0.24111830057380046,6.292887210845947
0.235258210230741,6.295719861984253
0.23623489195458425,6.298390865325928
0.24600170919301667,6.301071405410767
0.24502502746917343,6.3038859367370605
0.2306189720424856,6.306563138961792
0.24038578928091803,6.309230804443359
0.23403735807593695,6.311944961547852
0.23550238066170182,6.314651966094971
0.24526919790013424,6.317315340042114
0.24624587962397748,6.320026874542236
0.23354901721401533,6.3227012157440186
0.24136247100476127,6.32541036605835
0.23599072152362344,6.3281214237213135
0.23599072152362344,6.330790042877197
0.2469783909168599,6.333509206771851
0.24600170919301667,6.336223125457764
0.23672323281650587,6.338908910751343
0.23843242583323154,6.3415868282318115
0.23672323281650587,6.344351530075073
0.2350140397997802,6.3470237255096436
0.2440483457453302,6.349701404571533
0.24282749359052613,6.352414846420288
0.23696740324746668,6.355211496353149
0.23452569893785857,6.357887268066406
0.23599072152362344,6.360604286193848
0.2325723354901721,6.363307952880859
0.2398974484189964,6.3659820556640625
0.24038578928091803,6.368692636489868
0.23672323281650587,6.3713624477386475
0.22915394945672074,6.374061822891235
0.23452569893785857,6.37677526473999
0.2306189720424856,6.379438877105713
0.23476986936881938,6.38210916519165
0.24014161884995722,6.384856224060059
0.23940910755707479,6.387527227401733
0.22671224514711263,6.390193939208984
0.23672323281650587,6.392955303192139
0.23135148333536804,6.3956310749053955
0.2325723354901721,6.398305654525757
0.24258332315956532,6.401017427444458
0.24307166402148694,6.403717756271362
0.22988646074960317,6.4063849449157715
0.23818825540227073,6.409100294113159
0.23159565376632885,6.411765098571777
0.23330484678305452,6.41448712348938
0.24258332315956532,6.4171974658966064
0.24307166402148694,6.4198689460754395
0.23110731290440722,6.422537565231323
0.23599072152362344,6.425276041030884
0.2325723354901721,6.427944183349609
0.23086314247344641,6.43061375617981
0.2420949822976437,6.433358907699585
0.2420949822976437,6.436035394668579
0.23550238066170182,6.438715696334839
0.23452569893785857,6.441426992416382
0.235258210230741,6.44413948059082
0.2328165059211329,6.446813106536865
0.24136247100476127,6.449533224105835
0.24111830057380046,6.45221209526062
0.2374557441093883,6.454913139343262
0.23086314247344641,6.457674503326416
0.23428152850689776,6.460433006286621
0.23135148333536804,6.463150978088379
0.23794408497130992,6.4658637046813965
0.24014161884995722,6.468541622161865
0.23867659626419235,6.471213102340698
0.2281772677328775,6.473957538604736
0.2350140397997802,6.476622581481934
0.2306189720424856,6.479307413101196
0.23428152850689776,6.481997728347778
0.2423391527286045,6.48469877243042
0.24380417531436938,6.487411975860596
0.23013063118056398,6.490092039108276
0.24111830057380046,6.492790699005127
0.23476986936881938,6.495506763458252
0.2374557441093883,6.498180627822876
0.24966426565742883,6.500865459442139
0.2508851178122329,6.503691911697388
0.23818825540227073,6.506378889083862
0.2445366866072518,6.5090532302856445
0.23818825540227073,6.511792898178101
0.23867659626419235,6.514512300491333
0.24795507264070316,6.51718544960022
0.2491759247955072,6.519905090332031
0.2372115736784275,6.522578716278076
0.24136247100476127,6.5252790451049805
0.23916493712611397,6.527994394302368
0.23672323281650587,6.530665397644043
0.2464900500549383,6.5333733558654785
0.24551336833109505,6.5360870361328125
0.23818825540227073,6.538766384124756
0.23672323281650587,6.541438102722168
0.23696740324746668,6.544193267822266
0.23428152850689776,6.546866178512573
0.24160664143572208,6.549537420272827
0.2423391527286045,6.5522520542144775
0.23916493712611397,6.554960012435913
0.23135148333536804,6.557623386383057
0.23623489195458425,6.560338497161865
0.2325723354901721,6.563043594360352
0.2372115736784275,6.56571888923645
0.2423391527286045,6.5684309005737305
0.2420949822976437,6.571111440658569
0.22939811988768155,6.573812961578369
0.2374557441093883,6.57653284072876
0.23208399462825047,6.579200744628906
0.2328165059211329,6.5818703174591064
0.2418508118666829,6.584614992141724
0.24331583445244775,6.587292671203613
0.22939811988768155,6.589962005615234
0.23843242583323154,6.592674493789673
0.23183982419728966,6.595373630523682
0.23672323281650587,6.598046064376831
0.25039677695031126,6.600754261016846
0.2511292882431937,6.603447675704956
0.2398974484189964,6.606117010116577
0.244292516176291,6.60882568359375
0.24038578928091803,6.611534118652344
0.23892076669515316,6.614243984222412
0.24819924307166397,6.616950035095215
0.2491759247955072,6.619629621505737
0.23916493712611397,6.622298717498779
0.24062995971187884,6.6250457763671875
0.23916493712611397,6.627714157104492
0.2374557441093883,6.630388021469116
0.24624587962397748,6.6331517696380615
0.24600170919301667,6.635828733444214
0.23940910755707479,6.63850212097168
0.23428152850689776,6.641246318817139
0.23794408497130992,6.643971920013428
0.23452569893785857,6.64664888381958
0.24038578928091803,6.649359464645386
0.2423391527286045,6.652029275894165
0.24062995971187884,6.65473198890686
0.2303748016115248,6.657447814941406
0.23818825540227073,6.660118103027344
0.23354901721401533,6.662832975387573
0.23647906238554506,6.665547847747803
0.24307166402148694,6.668221712112427
0.24356000488340857,6.670891761779785
0.22964229031864236,6.673637866973877
0.23916493712611397,6.676309823989868
0.23232816505921128,6.678983688354492
0.23354901721401533,6.681697845458984
0.2440483457453302,6.684408187866211
0.24478085703821262,6.6870763301849365
0.23208399462825047,6.689788818359375
0.24136247100476127,6.692460536956787
0.23428152850689776,6.69525671005249
0.23599072152362344,6.697969436645508
0.24526919790013424,6.70064640045166
0.2445366866072518,6.703372001647949
0.2325723354901721,6.706066131591797
0.23696740324746668,6.708733558654785
0.23354901721401533,6.711444616317749
0.23208399462825047,6.7141501903533936
0.24111830057380046,6.716821670532227
0.24111830057380046,6.719529390335083
0.23452569893785857,6.722199201583862
0.23452569893785857,6.72490382194519
0.23330484678305452,6.727620363235474
0.22695641557807344,6.730289697647095
0.22964229031864236,6.7329936027526855
0.22915394945672074,6.735706329345703
0.22549139299230858,6.738379001617432
0.21841045049444507,6.741063594818115
0.22475888169942615,6.743824481964111
0.2215846660969356,6.746493816375732
0.226223904285191,6.749163866043091
0.23086314247344641,6.751874208450317
0.22964229031864236,6.754601001739502
0.21767793920156264,6.757269620895386
0.22768892687095588,6.759974002838135
0.22256134782077885,6.762644529342651
0.22744475643999507,6.765350580215454
0.2325723354901721,6.768081188201904
0.23354901721401533,6.770756006240845
0.22085215480405318,6.77345085144043
0.2306189720424856,6.776160955429077
0.22304968868270048,6.778836250305176
0.22475888169942615,6.78151273727417
0.235258210230741,6.784257411956787
0.23403735807593695,6.786933183670044
0.22402637040654372,6.789605379104614
0.23013063118056398,6.792320489883423
0.22646807471615182,6.795028924942017
0.22768892687095588,6.797702789306641
0.2374557441093883,6.800414323806763
0.2372115736784275,6.80311918258667
0.2284214381638383,6.805791854858398
0.22744475643999507,6.808507919311523
0.22475888169942615,6.8111772537231445
0.22036381394213156,6.813951730728149
0.22549139299230858,6.816671133041382
0.22549139299230858,6.819347620010376
0.22182883652789642,6.822012901306152
0.21865462092540588,6.824759483337402
0.2215846660969356,6.827432632446289
0.2191429617873275,6.830096244812012
0.22646807471615182,6.832834005355835
0.22890977902575993,6.835503339767456
0.22890977902575993,6.838170289993286
0.2188987913563667,6.840887546539307
0.22695641557807344,6.843598365783691
0.22256134782077885,6.846278667449951
0.226223904285191,6.848997354507446
0.2328165059211329,6.851671457290649
0.2328165059211329,6.8543784618377686
0.21963130264924913,6.85708475112915
0.22964229031864236,6.859752416610718
0.2235380295446221,6.862426042556763
0.2259797338542302,6.865173816680908
0.23550238066170182,6.867850065231323
0.23623489195458425,6.8705315589904785
0.22304968868270048,6.8732922077178955
0.2325723354901721,6.875965118408203
0.2257355634232694,6.878645658493042
0.22671224514711263,6.881357431411743
0.23647906238554506,6.884063720703125
0.23672323281650587,6.886740207672119
0.226223904285191,6.88945746421814
0.23013063118056398,6.892124652862549
0.2284214381638383,6.894837379455566
0.22720058600903426,6.897550344467163
0.2376999145403491,6.900224924087524
0.23696740324746668,6.902929306030273
0.23013063118056398,6.905641794204712
0.22988646074960317,6.908321857452393
0.2303748016115248,6.910993576049805
0.2284214381638383,6.913751602172852
0.23818825540227073,6.916428327560425
0.23867659626419235,6.919102191925049
0.23476986936881938,6.921821355819702
0.22768892687095588,6.9245240688323975
0.23232816505921128,6.927200078964233
0.22939811988768155,6.9299116134643555
0.23452569893785857,6.9325852394104
0.23940910755707479,6.935303688049316
0.23696740324746668,6.9380011558532715
0.22427054083750453,6.94067120552063
0.23940910755707479,6.943440198898315
0.23354901721401533,6.946121692657471
0.235258210230741,6.948793888092041
0.2445366866072518,6.9515039920806885
0.24526919790013424,6.9542460441589355
0.23086314247344641,6.956921339035034
0.24062995971187884,6.959638595581055
0.23330484678305452,6.962319374084473
0.23599072152362344,6.965024948120117
0.24624587962397748,6.9677414894104
0.24795507264070316,6.970423698425293
0.23452569893785857,6.9731199741363525
0.24038578928091803,6.975836753845215
0.23452569893785857,6.978503465652466
0.23428152850689776,6.981182098388672
0.24526919790013424,6.983926296234131
0.24502502746917343,6.986605644226074
0.23574655109266263,6.989274978637695
0.2374557441093883,6.991989374160767
0.23623489195458425,6.9947123527526855
0.23403735807593695,6.997392177581787
0.24331583445244775,7.0001060962677
0.2423391527286045,7.002803087234497
0.23647906238554506,7.005473613739014
0.2325723354901721,7.008187532424927
0.23550238066170182,7.010862350463867
0.23696740324746668,7.014894723892212
0.25430350384568423,7.017613649368286
0.2555243560004883,7.020287990570068
0.2445366866072518,7.022995948791504
0.2516176291051153,7.026003837585449
0.24795507264070316,7.028684377670288
0.2464900500549383,7.03137731552124
0.2557685264314491,7.034106254577637
0.2562568672933707,7.037122964859009
0.24331583445244775,7.039844274520874
0.2489317543645464,7.042531728744507
0.24331583445244775,7.045248746871948
0.244292516176291,7.04825234413147
0.25503601513856666,7.050924062728882
0.2552801855695275,7.053630828857422
0.24307166402148694,7.0565972328186035
0.2469783909168599,7.059283018112183
0.2423391527286045,7.061958312988281
0.2420949822976437,7.064717531204224
0.2518617995360761,7.0676634311676025
0.2530826516908802,7.0703394412994385
0.24111830057380046,7.073087930679321
0.24600170919301667,7.075763702392578
0.24160664143572208,7.07871675491333
0.2420949822976437,7.081435441970825
0.25283848125991937,7.084142208099365
0.2518617995360761,7.086816787719727
0.23818825540227073,7.089800119400024
0.24526919790013424,7.092481851577759
0.24136247100476127,7.09519624710083
0.2423391527286045,7.097984552383423
0.2538151629837626,7.100863218307495
0.2538151629837626,7.103615999221802
0.24307166402148694,7.106288433074951
0.2469783909168599,7.1092424392700195
0.2423391527286045,7.111954689025879
0.2420949822976437,7.114693641662598
0.2513734586741545,7.117366790771484
0.2508851178122329,7.120343208312988
0.2398974484189964,7.123051643371582
0.244292516176291,7.125733137130737
0.24087413014283965,7.128450155258179
0.24136247100476127,7.131406784057617
0.25039677695031126,7.134109020233154
0.2516176291051153,7.136828422546387
0.24136247100476127,7.1395041942596436
0.24502502746917343,7.142466068267822
0.24087413014283965,7.145236968994141
0.24111830057380046,7.147917985916138
0.2516176291051153,7.150867223739624
0.25210596996703694,7.153619050979614
0.24062995971187884,7.156302452087402
0.24380417531436938,7.158979177474976
0.24038578928091803,7.16196084022522
0.23818825540227073,7.164690971374512
0.24966426565742883,7.167402267456055
0.2489317543645464,7.170094013214111
0.2376999145403491,7.173301458358765
0.244292516176291,7.176034450531006
0.2396532779880356,7.178714036941528
0.24014161884995722,7.181528091430664
0.2506409473812721,7.184413909912109
0.25039677695031126,7.187090158462524
0.23843242583323154,7.1897618770599365
0.24258332315956532,7.1927831172943115
0.2398974484189964,7.195467710494995
0.23940910755707479,7.1981446743011475
0.24942009522646802,7.200860977172852
0.24990843608838964,7.2038538455963135
0.23843242583323154,7.206527471542358
0.24380417531436938,7.2092506885528564
0.23892076669515316,7.211928129196167
0.23892076669515316,7.214922666549683
0.2486875839335856,7.217644929885864
0.2491759247955072,7.22032356262207
0.2374557441093883,7.223026752471924
0.2418508118666829,7.225997447967529
0.23672323281650587,7.228670358657837
0.23599072152362344,7.2313690185546875
0.24819924307166397,7.23438572883606
0.24966426565742883,7.237071514129639
0.23794408497130992,7.2397849559783936
0.2420949822976437,7.24246883392334
0.23867659626419235,7.24548864364624
0.23867659626419235,7.248217344284058
0.2530826516908802,7.250884532928467
0.25015260651935045,7.253591299057007
0.23892076669515316,7.2565789222717285
0.24380417531436938,7.259255409240723
0.24062995971187884,7.261922597885132
0.2396532779880356,7.264669418334961
0.24966426565742883,7.267613172531128
0.24990843608838964,7.270293474197388
0.23818825540227073,7.273043155670166
0.24136247100476127,7.275995492935181
0.23794408497130992,7.278668403625488
0.2372115736784275,7.281409025192261
0.24722256134782072,7.284115791320801
0.24746673177878153,7.287069320678711
0.23672323281650587,7.289784908294678
0.24111830057380046,7.292470455169678
0.23843242583323154,7.295181751251221
0.23647906238554506,7.298162937164307
0.24819924307166397,7.30083703994751
0.24819924307166397,7.303589105606079
0.23794408497130992,7.3062920570373535
0.2418508118666829,7.309246778488159
0.2376999145403491,7.311969041824341
0.23550238066170182,7.314685344696045
0.24600170919301667,7.317634582519531
0.24624587962397748,7.320349931716919
0.235258210230741,7.323127508163452
0.24136247100476127,7.325806140899658
0.23843242583323154,7.328772783279419
0.23916493712611397,7.331453323364258
0.24966426565742883,7.33416485786438
0.24990843608838964,7.336886167526245
0.23916493712611397,7.339837074279785
0.24307166402148694,7.342514276504517
0.2396532779880356,7.345278739929199
0.23892076669515316,7.347962379455566
0.2491759247955072,7.350916147232056
0.2489317543645464,7.353702545166016
0.2372115736784275,7.356384754180908
0.24062995971187884,7.359349489212036
0.2376999145403491,7.362056493759155
0.23916493712611397,7.364772319793701
0.2491759247955072,7.367491960525513
0.24819924307166397,7.370452404022217
0.2374557441093883,7.373169183731079
0.2423391527286045,7.375889301300049
0.23940910755707479,7.378569602966309
0.2374557441093883,7.381522178649902
0.24722256134782072,7.38427996635437
0.24746673177878153,7.38696551322937
0.23672323281650587,7.389643430709839
0.24014161884995722,7.392645597457886
0.23672323281650587,7.395350456237793
0.2376999145403491,7.398032903671265
0.24771090220974235,7.401016473770142
0.24819924307166397,7.403729677200317
0.23794408497130992,7.406409025192261
0.2418508118666829,7.409130811691284
0.2396532779880356,7.412079095840454
0.23843242583323154,7.414802074432373
0.2491759247955072,7.417523384094238
0.2491759247955072,7.420204162597656
0.23818825540227073,7.423185586929321
0.24282749359052613,7.42590594291687
0.23916493712611397,7.428579807281494
0.23867659626419235,7.431251764297485
0.24966426565742883,7.434270620346069
0.24942009522646802,7.436952829360962
0.24062995971187884,7.439667701721191
0.24331583445244775,7.442612886428833
0.24136247100476127,7.445337772369385
0.24038578928091803,7.448068141937256
0.2511292882431937,7.450739860534668
0.24990843608838964,7.453739643096924
0.24111830057380046,7.456451892852783
0.24526919790013424,7.459455251693726
0.24307166402148694,7.462229490280151
0.2418508118666829,7.464995384216309
0.2508851178122329,7.467669725418091
0.25259431082895856,7.470626592636108
0.24038578928091803,7.473393201828003
0.24526919790013424,7.476073503494263
0.24111830057380046,7.4790215492248535
0.24014161884995722,7.481744766235352
0.25039677695031126,7.484447956085205
0.2508851178122329,7.487123966217041
0.2398974484189964,7.490106105804443
0.244292516176291,7.4928131103515625
0.24038578928091803,7.49552845954895
0.24014161884995722,7.498209714889526
0.25015260651935045,7.50115180015564
0.2516176291051153,7.503897428512573
0.2398974484189964,7.506575107574463
0.2440483457453302,7.509258270263672
0.2398974484189964,7.512246608734131
0.24062995971187884,7.515050411224365
0.25210596996703694,7.517721652984619
0.25283848125991937,7.5207014083862305
0.24111830057380046,7.523420572280884
0.2464900500549383,7.526090145111084
0.2418508118666829,7.5288050174713135
0.24258332315956532,7.531752824783325
0.253326822121841,7.5344557762146
0.2538151629837626,7.537193298339844
0.24160664143572208,7.539873361587524
0.24600170919301667,7.542856454849243
0.24111830057380046,7.545590877532959
0.24062995971187884,7.5482752323150635
0.25015260651935045,7.550942897796631
0.2508851178122329,7.553976058959961
0.23916493712611397,7.556648254394531
0.24380417531436938,7.55934476852417
0.24111830057380046,7.562235116958618
0.24038578928091803,7.565017938613892
0.24990843608838964,7.567740201950073
0.2508851178122329,7.570413589477539
0.24014161884995722,7.573392391204834
0.24307166402148694,7.576115846633911
0.2374557441093883,7.578786611557007
0.23672323281650587,7.581459045410156
0.24575753876205586,7.584482192993164
0.2464900500549383,7.587168216705322
0.23672323281650587,7.589841365814209
0.24111830057380046,7.592562437057495
0.23843242583323154,7.595567464828491
0.23867659626419235,7.598250865936279
0.24819924307166397,7.6009650230407715
0.24819924307166397,7.6036787033081055
0.2374557441093883,7.606616735458374
0.2418508118666829,7.609334230422974
0.23818825540227073,7.612013339996338
0.2372115736784275,7.614997863769531
0.24990843608838964,7.617722272872925
0.24722256134782072,7.6204094886779785
0.2374557441093883,7.62311577796936
0.2398974484189964,7.626104354858398
0.2376999145403491,7.6287877559661865
0.2372115736784275,7.63150954246521
0.24819924307166397,7.634219169616699
0.2489317543645464,7.63718056678772
0.23794408497130992,7.639894962310791
0.24087413014283965,7.642575263977051
0.23818825540227073,7.645286321640015
0.2372115736784275,7.648308038711548
0.24795507264070316,7.650999546051025
0.24795507264070316,7.65371298789978
0.23818825540227073,7.6574625968933105
0.24258332315956532,7.660181999206543
0.23647906238554506,7.6629157066345215
0.23940910755707479,7.665632009506226
0.24990843608838964,7.668306112289429
0.24990843608838964,7.670989036560059
0.2374557441093883,7.673731088638306
0.244292516176291,7.676406621932983
0.23794408497130992,7.679075717926025
0.23843242583323154,7.68178391456604
0.25015260651935045,7.684478521347046
0.2491759247955072,7.6871562004089355
0.23916493712611397,7.689864873886108
0.24356000488340857,7.6925435066223145
0.2423391527286045,7.69524359703064
0.24038578928091803,7.6979522705078125
0.2491759247955072,7.70062780380249
0.24819924307166397,7.703352451324463
0.2420949822976437,7.706042289733887
0.24014161884995722,7.708719968795776
0.2418508118666829,7.7114341259002686
0.23843242583323154,7.714170694351196
0.24600170919301667,7.716844320297241
0.24575753876205586,7.7195634841918945
0.24380417531436938,7.722236394882202
0.235258210230741,7.7249438762664795
0.2418508118666829,7.727663278579712
0.23843242583323154,7.730334043502808
0.2418508118666829,7.7331273555755615
0.24966426565742883,7.735851049423218
0.24600170919301667,7.738529443740845
0.2328165059211329,7.7412109375
0.24331583445244775,7.743951320648193
0.23818825540227073,7.746631860733032
0.23916493712611397,7.749310731887817
0.25015260651935045,7.7520201206207275
0.24722256134782072,7.754734516143799
0.23403735807593695,7.757407188415527
0.24307166402148694,7.760118007659912
0.23623489195458425,7.762814998626709
0.23818825540227073,7.765491247177124
0.24771090220974235,7.7682061195373535
0.24771090220974235,7.7708799839019775
0.23623489195458425,7.773581266403198
0.2418508118666829,7.776286363601685
0.2372115736784275,7.778953790664673
0.23672323281650587,7.781621932983398
0.24819924307166397,7.784364938735962
0.2469783909168599,7.787039279937744
0.23818825540227073,7.789718151092529
0.23916493712611397,7.7924487590789795
0.2418508118666829,7.795156478881836
0.2374557441093883,7.79782509803772
0.24575753876205586,7.8005406856536865
0.24478085703821262,7.803242921829224
0.24038578928091803,7.805913209915161
0.23476986936881938,7.808616638183594
0.23867659626419235,7.811298131942749
0.23428152850689776,7.814010381698608
0.24136247100476127,7.816723585128784
0.24380417531436938,7.819393873214722
0.24136247100476127,7.822067499160767
0.2306189720424856,7.824808359146118
0.23916493712611397,7.827477693557739
0.235258210230741,7.830144643783569
0.23818825540227073,7.832972049713135
0.24624587962397748,7.835650444030762
0.24478085703821262,7.83832311630249
0.23135148333536804,7.841029405593872
0.24038578928091803,7.843736886978149
0.23403735807593695,7.84641432762146
0.23428152850689776,7.849141359329224
0.244292516176291,7.851809978485107
0.24502502746917343,7.854524374008179
0.23135148333536804,7.857234239578247
0.24038578928091803,7.859910488128662
0.23428152850689776,7.8625874519348145
0.23403735807593695,7.865330696105957
0.24502502746917343,7.868004322052002
0.2445366866072518,7.870676517486572
0.23330484678305452,7.873418569564819
0.23794408497130992,7.876094102859497
0.23672323281650587,7.878762722015381
0.23354901721401533,7.8814756870269775
0.24258332315956532,7.884184837341309
0.24160664143572208,7.8868567943573
0.23452569893785857,7.889563798904419
0.23330484678305452,7.892240524291992
0.23476986936881938,7.894946813583374
0.23232816505921128,7.8976593017578125
0.24014161884995722,7.900324821472168
0.24038578928091803,7.90303111076355
0.2376999145403491,7.9057395458221436
0.23013063118056398,7.908413887023926
0.23818825540227073,7.911087989807129
0.23208399462825047,7.913845062255859
0.23550238066170182,7.916517496109009
0.24136247100476127,7.919189691543579
0.2396532779880356,7.92190146446228
0.22695641557807344,7.924609184265137
0.23599072152362344,7.927297115325928
0.23086314247344641,7.929991722106934
0.23354901721401533,7.932667016983032
0.2440483457453302,7.9354026317596436
0.24502502746917343,7.938082695007324
0.23086314247344641,7.940760850906372
0.24038578928091803,7.943500280380249
0.23354901721401533,7.94617772102356
0.23452569893785857,7.948849439620972
0.24624587962397748,7.951569080352783
0.24575753876205586,7.954306125640869
0.23354901721401533,7.95699405670166
0.23940910755707479,7.959711313247681
0.23476986936881938,7.962388038635254
0.23452569893785857,7.9650866985321045
0.24575753876205586,7.967804193496704
0.24526919790013424,7.970476865768433
0.2374557441093883,7.973182201385498
0.23940910755707479,7.975888967514038
0.23574655109266263,7.978561639785767
0.23452569893785857,7.9812233448028564
0.2423391527286045,7.983967542648315
0.2418508118666829,7.9866414070129395
0.23672323281650587,7.989321231842041
0.23086314247344641,7.992025136947632
0.2328165059211329,7.994736433029175
0.22988646074960317,7.997413396835327
0.23452569893785857,8.00012755393982
0.2372115736784275,8.00286316871643
0.23623489195458425,8.005543231964111
0.2257355634232694,8.00825834274292
0.23208399462825047,8.010926723480225
0.2284214381638383,8.013629913330078
0.23232816505921128,8.016345739364624
0.2398974484189964,8.019014358520508
0.24038578928091803,8.02168321609497
0.22646807471615182,8.02442455291748
0.23574655109266263,8.027095556259155
0.22964229031864236,8.029762029647827
0.23208399462825047,8.032477855682373
0.2418508118666829,8.035183429718018
0.24307166402148694,8.03786301612854
0.23013063118056398,8.040571212768555
0.2374557441093883,8.043278455734253
0.23159565376632885,8.045950889587402
0.2325723354901721,8.048689842224121
0.2445366866072518,8.051367282867432
0.2445366866072518,8.05407977104187
0.235258210230741,8.056791067123413
0.23672323281650587,8.059463024139404
0.23330484678305452,8.062133550643921
0.23330484678305452,8.064878463745117
0.2440483457453302,8.067551136016846
0.2418508118666829,8.070220708847046
0.23403735807593695,8.072978258132935
0.23476986936881938,8.07564401626587
0.24014161884995722,8.078318357467651
0.23623489195458425,8.081025123596191
0.2423391527286045,8.083720922470093
0.244292516176291,8.086393594741821
0.2423391527286045,8.089101552963257
0.2330606763520937,8.09177303314209
0.24038578928091803,8.094472408294678
0.23867659626419235,8.097188234329224
0.2440483457453302,8.099861145019531
0.25015260651935045,8.102523803710938
0.24990843608838964,8.105273008346558
0.2372115736784275,8.107946634292603
0.2440483457453302,8.110619306564331
0.2374557441093883,8.113361120223999
0.23818825540227073,8.11603331565857
0.24526919790013424,8.118704319000244
0.24624587962397748,8.121422290802002
0.23354901721401533,8.124134540557861
0.23818825540227073,8.126807689666748
0.23135148333536804,8.129527568817139
0.235258210230741,8.132190704345703
0.23623489195458425,8.134896039962769
0.2374557441093883,8.137597560882568
0.22866560859479912,8.140264511108398
0.23159565376632885,8.142966032028198
0.22768892687095588,8.145675659179688
0.22036381394213156,8.14835238456726
0.23599072152362344,8.15102481842041
0.23354901721401533,8.153776407241821
0.2257355634232694,8.156447410583496
0.226223904285191,8.159118175506592
0.22964229031864236,8.161816120147705
0.22695641557807344,8.164529800415039
0.23428152850689776,8.167202472686768
0.23403735807593695,8.169915437698364
0.22964229031864236,8.172583818435669
0.22256134782077885,8.175302028656006
0.22646807471615182,8.177997589111328
0.22500305213038696,8.180659532546997
0.22890977902575993,8.183401107788086
0.2306189720424856,8.186070442199707
0.2303748016115248,8.188740015029907
0.21718959833964102,8.191441535949707
0.22671224514711263,8.194166660308838
0.22231717738981804,8.196838140487671
0.22451471126846534,8.199546813964844
0.23452569893785857,8.202211856842041
0.235258210230741,8.204910039901733
0.2235380295446221,8.207620859146118
0.23135148333536804,8.210295915603638
0.22427054083750453,8.213206768035889
0.22744475643999507,8.215924739837646
0.2372115736784275,8.218592166900635
0.23696740324746668,8.221262216567993
0.22475888169942615,8.224002122879028
0.22744475643999507,8.22667646408081
0.22329385911366129,8.22934603691101
0.21987547308020994,8.232056856155396
0.22964229031864236,8.234760284423828
0.22866560859479912,8.23775029182434
0.21303870101330724,8.24154257774353
0.2237821999755829,8.244758367538452
0.21792210963252345,8.247600793838501
0.22085215480405318,8.25031304359436
0.22280551825173966,8.253546476364136
0.2213404956659748,8.25664496421814
0.221096325235014,8.259368181228638
0.221096325235014,8.26208758354187
0.2188987913563667,8.265337228775024
0.23110731290440722,8.268430948257446
0.2306189720424856,8.271403789520264
0.21767793920156264,8.2745521068573
0.2257355634232694,8.277601957321167
0.22060798437309237,8.280744314193726
0.226223904285191,8.283875703811646
0.22744475643999507,8.28692889213562
0.22280551825173966,8.289997100830078
0.22451471126846534,8.293184757232666
0.22182883652789642,8.296270370483398
0.22500305213038696,8.299283027648926
0.23354901721401533,8.302336692810059
0.23379318764497614,8.305502653121948
0.22060798437309237,8.308462381362915
0.23013063118056398,8.311332702636719
0.22964229031864236,8.314439058303833
0.24795507264070316,8.317489624023438
0.24746673177878153,8.32034158706665
0.24795507264070316,8.323172330856323
0.24844341350262478,8.326384544372559
0.24526919790013424,8.329512357711792
0.24331583445244775,8.332245826721191
0.25015260651935045,8.335117101669312
0.25210596996703694,8.338148832321167
0.23867659626419235,8.341236114501953
0.24771090220974235,8.34432601928711
0.24062995971187884,8.347418785095215
0.24771090220974235,8.35058879852295
0.2508851178122329,8.353761911392212
0.244292516176291,8.356810092926025
0.24600170919301667,8.359953880310059
0.2420949822976437,8.363102674484253
0.24062995971187884,8.366172075271606
0.2469783909168599,8.369276285171509
0.2489317543645464,8.372273921966553
0.2372115736784275,8.375577688217163
0.24307166402148694,8.378621816635132
0.24136247100476127,8.381458044052124
0.2518617995360761,8.384542465209961
0.25210596996703694,8.38740587234497
0.2440483457453302,8.390459537506104
0.24746673177878153,8.39358377456665
0.2418508118666829,8.396369695663452
0.2423391527286045,8.399099826812744
0.25039677695031126,8.402384996414185
0.2518617995360761,8.405468940734863
0.23794408497130992,8.408272743225098
0.2469783909168599,8.411130905151367
0.24160664143572208,8.414304494857788
0.2518617995360761,8.417435646057129
0.25259431082895856,8.42040467262268
0.24722256134782072,8.423689603805542
0.24844341350262478,8.42671537399292
0.2445366866072518,8.42971396446228
0.24478085703821262,8.432910680770874
0.2491759247955072,8.436010360717773
0.24551336833109505,8.439050912857056
0.23892076669515316,8.442135334014893
0.24771090220974235,8.445231437683105
0.2420949822976437,8.448329448699951
0.25503601513856666,8.451322555541992
0.2552801855695275,8.454405307769775
0.2423391527286045,8.457258939743042
0.24819924307166397,8.460256099700928
0.24307166402148694,8.463305711746216
0.25015260651935045,8.466415405273438
0.2560126968624099,8.46944808959961
0.2601635941887437,8.472285032272339
0.2469783909168599,8.475194215774536
0.2560126968624099,8.47834324836731
0.25015260651935045,8.481390714645386
0.2508851178122329,8.484208822250366
0.2491759247955072,8.486942291259766
0.24136247100476127,8.490034341812134
0.24331583445244775,8.493260860443115
0.2440483457453302,8.496208429336548
0.2562568672933707,8.499221086502075
0.27359296789158827,8.502299070358276
0.2679770479794896,8.505469560623169
0.25283848125991937,8.508513927459717
0.26211695763643017,8.511635780334473
0.2645586619460383,8.514747381210327
0.28042973995849096,8.517833232879639
0.2811622512513734,8.520927906036377
0.2743254791844707,8.52404260635376
0.27749969478696124,8.527107238769531
0.2716396044439018,8.53019094467163
0.2718837748748626,8.53329062461853
0.272616286167745,8.536255836486816
0.27749969478696124,8.539016962051392
0.26407032108411665,8.541709899902344
0.2677328775485288,8.544511079788208
