semg,time,class
0.271395434012941,0.0032649040222167,0
0.2569893785862531,0.006422996520996,0
0.267488707117568,0.0091252326965332,0
0.2586985716029788,0.0121748447418212,0
0.259675253326822,0.0149316787719726,0
0.271395434012941,0.017932653427124,0
0.2704187522890977,0.0206232070922851,0
0.2567452081552923,0.0233008861541748,0
0.267488707117568,0.0260610580444335,0
0.2599194237577829,0.0290162563323974,0
0.2608961054816261,0.0317063331604003,0
0.2716396044439018,0.0344572067260742,0
0.271395434012941,0.0374131202697753,0
0.2562568672933707,0.0401020050048828,0
0.2684653888414112,0.0428252220153808,0
0.2608961054816261,0.0455520153045654,0
0.2621169576364301,0.048508882522583,0
0.2718837748748626,0.0512347221374511,0
0.2718837748748626,0.0540773868560791,0
0.2582102307410572,0.0567569732666015,0
0.2684653888414112,0.0597531795501709,0
0.2618727872054693,0.0624325275421142,0
0.2640703210841166,0.0651488304138183,0
0.2753021609083139,0.0678708553314209,0
0.2723721157367842,0.0708327293395996,0
0.2601635941887437,0.0735177993774414,0
0.271395434012941,0.0762710571289062,0
0.2645586619460383,0.0792434215545654,0
0.267488707117568,0.0819718837738037,0
0.276523013063118,0.0848810672760009,0
0.2733487974606274,0.087576150894165,0
0.2613844463435477,0.0905711650848388,0
0.2701745818581369,0.0932567119598388,0
0.2643144915150774,0.095973253250122,0
0.268709559272372,0.0986964702606201,0
0.2774996947869612,0.1016488075256347,0
0.2731046270296666,0.1043763160705566,0
0.2618727872054693,0.1070921421051025,0
0.2716396044439018,0.1097779273986816,0
0.2652911732389207,0.1127314567565918,0
0.2694420705652545,0.1154823303222656,0
0.2755463313392747,0.1181657314300537,0
0.2731046270296666,0.121119737625122,0
0.2618727872054693,0.1238696575164794,0
0.2689537297033328,0.1265544891357422,0
0.2626052984983518,0.1292335987091064,0
0.2667561958246855,0.1322188377380371,0
0.2750579904773531,0.1349599361419677,0
0.271395434012941,0.1376516819000244,0
0.259675253326822,0.1403496265411377,0
0.268709559272372,0.1433000564575195,0
0.2626052984983518,0.1460621356964111,0
0.2672445366866072,0.1487472057342529,0
0.2748138200463923,0.15142822265625,0
0.2718837748748626,0.1544852256774902,0
0.2616286167745085,0.1571793556213379,0
0.2704187522890977,0.1598649024963379,0
0.263581980222195,0.1628544330596923,0
0.2699304114271761,0.1655800342559814,0
0.2753021609083139,0.1682705879211425,0
0.272616286167745,0.1709988117218017,0
0.2608961054816261,0.1739814281463623,0
0.2691979001342937,0.1766695976257324,0
0.2638261506531558,0.1794261932373047,0
0.2694420705652545,0.1821198463439941,0
0.2745696496154315,0.1851286888122558,0
0.2709070931510193,0.1878659725189209,0
0.2616286167745085,0.190554141998291,0
0.2677328775485288,0.1932361125946045,0
0.2628494689293126,0.1962373256683349,0
0.2655353436698815,0.1977965831756591,0
0.2750579904773531,0.1991364955902099,0
0.2731046270296666,0.2004823684692382,0
0.2735929678915882,0.2018425464630127,0
0.2755463313392747,0.2031872272491455,0
0.2677328775485288,0.20469331741333,0
0.2613844463435477,0.2060387134552002,0
0.2699304114271761,0.2073807716369629,0
0.2735929678915882,0.2087242603302002,0
0.271395434012941,0.2100875377655029,0
0.2665120253937247,0.2114310264587402,0
0.267488707117568,0.2127730846405029,0
0.2694420705652545,0.2142393589019775,0
0.2809180808204126,0.2156226634979248,0
0.2806739103894518,0.2169663906097412,0
0.2801855695275301,0.2183327674865722,0
0.282871444268099,0.2196736335754394,0
0.2753021609083139,0.2210144996643066,0
0.2679770479794896,0.2223565578460693,0
0.272616286167745,0.2236981391906738,0
0.2789647173727261,0.2251985073089599,0
0.2794530582346477,0.2265644073486328,0
0.2718837748748626,0.2279095649719238,0
0.2723721157367842,0.2292513847351074,0
0.2718837748748626,0.2305941581726074,0
0.281650592113295,0.2319345474243164,0
0.285557319008668,0.2332758903503418,0
0.2814064216823342,0.2347989082336425,0
0.2862898303015504,0.2361466884613037,0
0.2801855695275301,0.2374904155731201,0
0.272616286167745,0.2388303279876709,0
0.2750579904773531,0.2401719093322754,0
0.2831156146990599,0.2415113449096679,0
0.2804297399584909,0.2428734302520752,0
0.2762788426321572,0.2442324161529541,0
0.2750579904773531,0.2457127571105957,0
0.2750579904773531,0.2470741271972656,0
0.2833597851300207,0.2484159469604492,0
0.2889757050421193,0.2497782707214355,0
0.2843364668538639,0.2511210441589355,0
0.2889757050421193,0.252465009689331,0
0.282871444268099,0.253828763961792,0
0.2750579904773531,0.2553174495697021,0
0.2735929678915882,0.2566606998443603,0
0.2823831034061774,0.2580227851867676,0
0.2804297399584909,0.2593646049499511,0
0.2772555243560004,0.2607080936431885,0
0.2753021609083139,0.2620496749877929,0
0.276523013063118,0.2633922100067138,0
0.281650592113295,0.2647502422332763,0
0.2899523867659626,0.2662563323974609,0
0.2865340007325112,0.2675991058349609,0
0.2894640459040409,0.2689392566680908,0
0.2860456598705896,0.270277738571167,0
0.2782322060798436,0.271622896194458,0
0.2743254791844707,0.2729637622833252,0
0.2831156146990599,0.274355411529541,0
0.2836039555609815,0.2758440971374511,0
0.2794530582346477,0.2771897315979004,0
0.2774996947869612,0.2785394191741943,0
0.2782322060798436,0.2798852920532226,0
0.2823831034061774,0.2812252044677734,0
0.2921499206446099,0.2825920581817627,0
0.2899523867659626,0.2839555740356445,0
0.2901965571969234,0.2852981090545654,0
0.2887315346111585,0.2867898941040039,0
0.2811622512513734,0.2881367206573486,0
0.2753021609083139,0.2894792556762695,0
0.2848248077157855,0.2908408641815185,0
0.2843364668538639,0.2921781539916992,0
0.2811622512513734,0.2935240268707275,0
0.2772555243560004,0.2948842048645019,0
0.2774996947869612,0.2963654994964599,0
0.2809180808204126,0.2977294921875,0
0.2928824319374923,0.3003175258636474,0
0.2892198754730801,0.3029966354370117,0
0.276523013063118,0.3057465553283691,0
0.281650592113295,0.3087046146392822,0
0.2750579904773531,0.3113970756530761,0
0.2735929678915882,0.3141517639160156,0
0.2882431937492369,0.3171131610870361,0
0.2860456598705896,0.319800853729248,0
0.2733487974606274,0.3225336074829101,0
0.2784763765108045,0.3252575397491455,0
0.2723721157367842,0.3282184600830078,0
0.2709070931510193,0.3309390544891357,0
0.2853131485777072,0.3336241245269775,0
0.282871444268099,0.3363442420959472,0
0.2699304114271761,0.3393113613128662,0
0.2770113539250396,0.3419983386993408,0
0.2704187522890977,0.3447153568267822,0
0.2699304114271761,0.3474369049072265,0
0.2831156146990599,0.3503949642181396,0
0.2809180808204126,0.3530826568603515,0
0.2684653888414112,0.3558411598205566,0
0.2738371383225491,0.3587923049926758,0
0.2677328775485288,0.3614847660064697,0
0.2660236845318031,0.3642404079437256,0
0.2794530582346477,0.3669288158416748,0
0.2782322060798436,0.3699204921722412,0
0.2652911732389207,0.3726117610931396,0
0.2718837748748626,0.3753468990325928,0
0.2655353436698815,0.3780696392059326,0
0.2640703210841166,0.3810555934906006,0
0.2782322060798436,0.383758544921875,0
0.2755463313392747,0.3865194320678711,0
0.2633378097912342,0.389204740524292,0
0.2699304114271761,0.3921699523925781,0
0.2628494689293126,0.3949425220489502,0
0.2618727872054693,0.3976223468780517,0
0.2753021609083139,0.4005746841430664,0
0.2743254791844707,0.4033074378967285,0
0.2618727872054693,0.4060347080230713,0
0.2691979001342937,0.4087233543395996,0
0.2628494689293126,0.4117171764373779,0
0.2616286167745085,0.414445161819458,0
0.2760346722011964,0.4171311855316162,0
0.2731046270296666,0.4198594093322754,0
0.259675253326822,0.422823429107666,0
0.268709559272372,0.4255475997924804,0
0.2604077646197045,0.4282701015472412,0
0.2594310828958612,0.4309508800506592,0
0.2735929678915882,0.433976411819458,0
0.2716396044439018,0.4366655349731445,0
0.2594310828958612,0.4393477439880371,0
0.267488707117568,0.4423232078552246,0
0.2608961054816261,0.4450476169586181,0
0.2608961054816261,0.4477322101593017,0
0.2755463313392747,0.4504570960998535,0
0.2735929678915882,0.4544148445129394,0
0.2606519350506653,0.457665205001831,0
0.2665120253937247,0.4607672691345215,0
0.2621169576364301,0.464038610458374,0
0.2750579904773531,0.4670407772064209,0
0.2757905017702355,0.470590591430664,0
0.2601635941887437,0.473503828048706,0
0.2691979001342937,0.4767038822174072,0
0.2638261506531558,0.4795994758605957,0
0.2718837748748626,0.4826903343200683,0
0.2748138200463923,0.4862222671508789,0
0.2667561958246855,0.4892776012420654,0
0.2738371383225491,0.4924592971801758,0
0.2655353436698815,0.4968702793121338,0
0.2784763765108045,0.5000677108764648,0
0.2782322060798436,0.5031609535217285,0
0.2655353436698815,0.5063941478729248,0
0.2748138200463923,0.5094757080078125,0
0.2665120253937247,0.5125119686126709,0
0.2716396044439018,0.5156774520874023,0
0.2782322060798436,0.5187499523162842,0
0.2718837748748626,0.5218372344970703,0
0.2699304114271761,0.5250203609466553,0
0.2694420705652545,0.5278632640838623,0
0.2665120253937247,0.5308959484100342,0
0.2806739103894518,0.5341441631317139,0
0.2796972286656085,0.5369274616241455,0
0.2648028323769991,0.5397584438323975,0
0.2750579904773531,0.5429854393005371,0
0.267488707117568,0.5461738109588623,0
0.2735929678915882,0.5489134788513184,0
0.2794530582346477,0.5517246723175049,0
0.2757905017702355,0.5549280643463135,0
0.2704187522890977,0.5580074787139893,0
0.2706629227200585,0.5609924793243408,0
0.2665120253937247,0.5642209053039551,0
0.2804297399584909,0.5672726631164551,0
0.2792088878036869,0.5704264640808105,0
0.2626052984983518,0.5734555721282959,0
0.2723721157367842,0.5765984058380127,0
0.2655353436698815,0.5797357559204102,0
0.2743254791844707,0.5828220844268799,0
0.2760346722011964,0.5860066413879395,0
0.2679770479794896,0.5890095233917236,0
0.2716396044439018,0.5920641422271729,0
0.2652911732389207,0.5953285694122314,0
0.263581980222195,0.5982708930969238,0
0.2770113539250396,0.6011245250701904,0
0.2750579904773531,0.6041891574859619,0
0.2608961054816261,0.6073164939880371,0
0.2701745818581369,0.6102516651153564,0
0.2645586619460383,0.6130096912384033,0
0.2731046270296666,0.6160581111907959,0
0.276523013063118,0.6192185878753662,0
0.2691979001342937,0.622183084487915,0
0.2709070931510193,0.6251039505004883,0
0.268709559272372,0.6281163692474365,0
0.2665120253937247,0.6310849189758301,0
0.2811622512513734,0.6341912746429443,0
0.2782322060798436,0.6372404098510742,0
0.2628494689293126,0.6403415203094482,0
0.2735929678915882,0.643500804901123,0
0.2667561958246855,0.6467056274414062,0
0.2774996947869612,0.649806022644043,0
0.2774996947869612,0.6528949737548828,0
0.2679770479794896,0.6560113430023193,0
0.2738371383225491,0.6591815948486328,0
0.2662678549627639,0.6619958877563477,0
0.2677328775485288,0.6652517318725586,0
0.2787205469417653,0.6684243679046631,0
0.2750579904773531,0.671238899230957,0
0.2648028323769991,0.6744074821472168,0
0.2718837748748626,0.6772398948669434,0
0.2679770479794896,0.6802310943603516,0
0.2792088878036869,0.6834189891815186,0
0.2774996947869612,0.6862869262695312,0
0.2677328775485288,0.6890199184417725,0
0.2723721157367842,0.6922769546508789,0
0.2667561958246855,0.6954457759857178,0
0.2657795141008423,0.69828200340271,0
0.2779880356488828,0.7010111808776855,0
0.2770113539250396,0.7040665149688721,0
0.2616286167745085,0.7072741985321045,0
0.2699304114271761,0.710158109664917,0
0.2640703210841166,0.7132105827331543,0
0.276523013063118,0.7165877819061279,0
0.2762788426321572,0.7196300029754639,0
0.2648028323769991,0.7227809429168701,0
0.2735929678915882,0.7259073257446289,0
0.2645586619460383,0.7289488315582275,0
0.2691979001342937,0.7321112155914307,0
0.276523013063118,0.7352283000946045,0
0.2723721157367842,0.7383453845977783,0
0.267488707117568,0.7413992881774902,0
0.2684653888414112,0.7444825172424316,0
0.2645586619460383,0.7473747730255127,0
0.277743865217922,0.7504007816314697,0
0.2770113539250396,0.7532029151916504,0
0.2638261506531558,0.7561707496643066,0
0.2718837748748626,0.7588765621185303,0
0.2648028323769991,0.7615628242492676,0
0.2648028323769991,0.7643451690673828,0
0.2794530582346477,0.7670323848724365,0
0.276523013063118,0.7697548866271973,0
0.2652911732389207,0.7724456787109375,0
0.2699304114271761,0.7751684188842773,0
0.2660236845318031,0.7778897285461426,0
0.2633378097912342,0.7805712223052979,0
0.2772555243560004,0.7832660675048828,0
0.2750579904773531,0.7860918045043945,0
0.2665120253937247,0.7887837886810303,0
0.2682212184104504,0.7914693355560303,0
0.267488707117568,0.7942426204681396,0
0.2638261506531558,0.7969264984130859,0
0.2753021609083139,0.7996120452880859,0
0.2743254791844707,0.8023302555084229,0
0.2691979001342937,0.8050522804260254,0
0.2652911732389207,0.8077399730682373,0
0.2684653888414112,0.8104569911956787,0
0.263581980222195,0.8131422996520996,0
0.2699304114271761,0.8158609867095947,0
0.2743254791844707,0.8185901641845703,0
0.2696862409962153,0.8212692737579346,0
0.2604077646197045,0.8239841461181641,0
0.2677328775485288,0.8267011642456055,0
0.2608961054816261,0.8293871879577637,0
0.2638261506531558,0.8320677280426025,0
0.2711512635819801,0.8348441123962402,0
0.2706629227200585,0.8375322818756104,0
0.2569893785862531,0.8402159214019775,0
0.2679770479794896,0.842940092086792,0
0.2606519350506653,0.8456642627716064,0
0.2616286167745085,0.848346471786499,0
0.2745696496154315,0.8510668277740479,0
0.2718837748748626,0.853752613067627,0
0.2577218898791356,0.8564906120300293,0
0.268709559272372,0.8592088222503662,0
0.2599194237577829,0.8618910312652588,0
0.2613844463435477,0.8646020889282227,0
0.2753021609083139,0.86733078956604,0
0.2733487974606274,0.870011568069458,0
0.2613844463435477,0.8726916313171387,0
0.2691979001342937,0.87544846534729,0
0.2626052984983518,0.878136396408081,0
0.2608961054816261,0.8808176517486572,0
0.2743254791844707,0.883551836013794,0
0.2716396044439018,0.8862838745117188,0
0.2621169576364301,0.8889670372009277,0
0.2660236845318031,0.8916923999786377,0
0.2638261506531558,0.8944189548492432,0
0.2601635941887437,0.8971025943756104,0
0.2716396044439018,0.8998227119445801,0
0.2694420705652545,0.9025070667266846,0
0.263581980222195,0.9052243232727052,0
0.2626052984983518,0.9079468250274658,0
0.2630936393602734,0.9106364250183104,0
0.2586985716029788,0.9133179187774658,0
0.2677328775485288,0.9160656929016112,0
0.2689537297033328,0.91874361038208,0
0.2648028323769991,0.9214329719543456,0
0.2572335490172139,0.9241943359375,0
0.2640703210841166,0.9268803596496582,0
0.2579660603100964,0.929556369781494,0
0.2645586619460383,0.9322822093963624,0
0.2706629227200585,0.934995412826538,0
0.2694420705652545,0.93770170211792,0
0.2569893785862531,0.940410852432251,0
0.267488707117568,0.943096399307251,0
0.2608961054816261,0.9458484649658204,0
0.2628494689293126,0.9485337734222412,0
0.2740813087535099,0.9512109756469728,0
0.2716396044439018,0.953963041305542,0
0.2565010377243315,0.9566478729248048,0
0.2694420705652545,0.9593360424041748,0
0.2608961054816261,0.9620528221130372,0
0.2608961054816261,0.9648666381835938,0
0.2772555243560004,0.9675564765930176,0
0.2735929678915882,0.9702811241149902,0
0.2601635941887437,0.9729583263397216,0
0.2701745818581369,0.9756944179534912,0
0.2618727872054693,0.978412389755249,0
0.2618727872054693,0.9810974597930908,0
0.2762788426321572,0.9837846755981444,0
0.2735929678915882,0.9865453243255616,0
0.2626052984983518,0.9892265796661376,0
0.2677328775485288,0.9919040203094482,0
0.263581980222195,0.9946577548980712,0
0.2606519350506653,0.9973363876342772,0
0.2735929678915882,1.0000123977661133,0
0.2731046270296666,1.0027647018432615,0
0.2643144915150774,1.0054805278778076,0
0.2665120253937247,1.0081651210784912,0
0.2648028323769991,1.0108840465545654,0
0.2626052984983518,1.013573408126831,0
0.2743254791844707,1.0162885189056396,0
0.2740813087535099,1.0190184116363523,0
0.267488707117568,1.021698236465454,0
0.2628494689293126,1.0244152545928955,0
0.2665120253937247,1.027134656906128,0
0.2613844463435477,1.0298140048980713,0
0.268709559272372,1.0324907302856443,0
0.2718837748748626,1.0352506637573242,0
0.268709559272372,1.0379269123077393,0
0.2582102307410572,1.0406079292297363,0
0.2672445366866072,1.0433292388916016,0
0.2613844463435477,1.0460383892059326,0
0.2655353436698815,1.0487279891967771,0
0.2733487974606274,1.0514538288116455,0
0.271395434012941,1.0541706085205078,0
0.2569893785862531,1.056849241256714,0
0.2665120253937247,1.059577703475952,0
0.2582102307410572,1.0622656345367432,0
0.259675253326822,1.0649819374084473,0
0.2731046270296666,1.0677194595336914,0
0.271395434012941,1.070407152175903,0
0.2574777194481747,1.0730962753295898,0
0.2677328775485288,1.075849533081055,0
0.2594310828958612,1.0785317420959473,0
0.2591869124649004,1.0812084674835205,0
0.2745696496154315,1.0839762687683103,0
0.2723721157367842,1.0866656303405762,0
0.2606519350506653,1.089350938796997,0
0.2682212184104504,1.0920751094818115,0
0.2628494689293126,1.0948119163513184,0
0.2606519350506653,1.0974929332733154,0
0.2743254791844707,1.1002163887023926,0
0.2716396044439018,1.102897882461548,0
0.2643144915150774,1.1056320667266846,0
0.267488707117568,1.108339786529541,0
0.2655353436698815,1.1110279560089111,0
0.2618727872054693,1.1137433052062988,0
0.2748138200463923,1.1164569854736328,0
0.2733487974606274,1.1191411018371582,0
0.2677328775485288,1.1218664646148682,0
0.2652911732389207,1.124793291091919,0
0.2665120253937247,1.12748384475708,0
0.2621169576364301,1.1304664611816406,0
0.2738371383225491,1.1332619190216064,0
0.2738371383225491,1.136013746261597,0
0.2665120253937247,1.1387383937835691,0
0.2660236845318031,1.1414198875427246,0
0.2665120253937247,1.1441583633422852,0
0.2626052984983518,1.1468820571899414,0
0.2731046270296666,1.1495602130889893,0
0.2735929678915882,1.1522445678710938,0
0.2684653888414112,1.1550004482269287,0
0.2621169576364301,1.1576809883117676,0
0.2665120253937247,1.1603600978851318,0
0.2606519350506653,1.163083791732788,0
0.2667561958246855,1.1657941341400146,0
0.2716396044439018,1.168473482131958,0
0.2699304114271761,1.1711952686309814,0
0.2589427420339396,1.173901081085205,0
0.2677328775485288,1.176588535308838,0
0.2613844463435477,1.179307460784912,0
0.2645586619460383,1.1819863319396973,0
0.2748138200463923,1.1847267150878906,0
0.2723721157367842,1.1874728202819824,0
0.2574777194481747,1.190151929855347,0
0.268709559272372,1.192835569381714,0
0.2599194237577829,1.1955969333648682,0
0.2599194237577829,1.1982755661010742,0
0.2731046270296666,1.200955867767334,0
0.2711512635819801,1.2036848068237305,0
0.2569893785862531,1.206411600112915,0
0.267488707117568,1.2090966701507568,0
0.259675253326822,1.2118167877197266,0
0.2594310828958612,1.2145535945892334,0
0.2738371383225491,1.217235088348389,0
0.2706629227200585,1.219951629638672,0
0.2586985716029788,1.2226338386535645,0
0.2652911732389207,1.2253878116607666,0
0.2601635941887437,1.2281906604766846,0
0.259675253326822,1.2308776378631592,0
0.2745696496154315,1.2335593700408936,0
0.2718837748748626,1.2363061904907229,0
0.2638261506531558,1.2389895915985107,0
0.2660236845318031,1.2416877746582031,0
0.2648028323769991,1.2444212436676023,0
0.2608961054816261,1.2471020221710205,0
0.272616286167745,1.24981951713562,0
0.2711512635819801,1.2525086402893066,0
0.2655353436698815,1.2552330493927002,0
0.2626052984983518,1.2579829692840576,0
0.2655353436698815,1.2606663703918457,0
0.2606519350506653,1.2633533477783203,0
0.2694420705652545,1.266191005706787,0
0.2704187522890977,1.2688775062561035,0
0.2667561958246855,1.2715599536895752,0
0.2586985716029788,1.2743093967437744,0
0.2672445366866072,1.2769834995269775,0
0.259675253326822,1.2796645164489746,0
0.2652911732389207,1.282388687133789,0
0.2718837748748626,1.2851073741912842,0
0.2694420705652545,1.2877988815307615,0
0.2569893785862531,1.2905304431915283,0
0.2655353436698815,1.29321551322937,0
0.2579660603100964,1.2959327697753906,0
0.2599194237577829,1.2986512184143066,0
0.2704187522890977,1.301330327987671,0
0.2699304114271761,1.3040478229522705,0
0.2562568672933707,1.306774377822876,0
0.2677328775485288,1.309452772140503,0
0.2594310828958612,1.3121328353881836,0
0.2591869124649004,1.314880132675171,0
0.2731046270296666,1.3175690174102783,0
0.2716396044439018,1.3202497959136963,0
0.2577218898791356,1.322972536087036,0
0.2657795141008423,1.325676441192627,0
0.2582102307410572,1.3283512592315674,0
0.2574777194481747,1.3310682773590088,0
0.2704187522890977,1.333752155303955,0
0.2689537297033328,1.336482286453247,0
0.2594310828958612,1.3392014503479004,0
0.2633378097912342,1.3418843746185305,0
0.2608961054816261,1.344599723815918,0
0.2579660603100964,1.3473105430603027,0
0.2696862409962153,1.3499925136566162,0
0.267488707117568,1.3526759147644043,0
0.2608961054816261,1.3554296493530271,0
0.2608961054816261,1.358114242553711,0
0.2608961054816261,1.36079740524292,0
0.2569893785862531,1.363515853881836,0
0.2684653888414112,1.3662333488464355,0
0.2694420705652545,1.368922233581543,0
0.2667561958246855,1.3716442584991455,0
0.2599194237577829,1.3743548393249512,0
0.2648028323769991,1.3770527839660645,0
0.2589427420339396,1.3797791004180908,0
0.2648028323769991,1.3824617862701416,0
0.2694420705652545,1.3851842880249023,0
0.2665120253937247,1.3879241943359375,0
0.2555243560004883,1.390608787536621,0
0.2640703210841166,1.3932974338531494,0
0.2577218898791356,1.3960719108581543,0
0.2613844463435477,1.3987529277801514,0
0.2699304114271761,1.4014332294464111,0
0.2691979001342937,1.4041869640350342,0
0.2540593334147234,1.406855821609497,0
0.2665120253937247,1.4095408916473389,0
0.2574777194481747,1.4122602939605713,0
0.2572335490172139,1.414978265762329,0
0.271395434012941,1.417679786682129,0
0.268709559272372,1.4203851222991943,0
0.2555243560004883,1.4230663776397705,0
0.2650470028079599,1.4258246421813965,0
0.2567452081552923,1.428506851196289,0
0.2569893785862531,1.431182861328125,0
0.2704187522890977,1.4339280128479004,0
0.2691979001342937,1.4366202354431152,0
0.2586985716029788,1.439302921295166,0
0.2648028323769991,1.4420254230499268,0
0.2618727872054693,1.444737672805786,0
0.2586985716029788,1.4474217891693115,0
0.2738371383225491,1.4501490592956543,0
0.2694420705652545,1.4528374671936035,0
0.2618727872054693,1.4555602073669434,0
0.263581980222195,1.458284616470337,0
0.2626052984983518,1.4609651565551758,0
0.2589427420339396,1.4636480808258057,0
0.2696862409962153,1.466395378112793,0
0.2694420705652545,1.4690847396850586,0
0.2645586619460383,1.4717741012573242,0
0.2599194237577829,1.4745521545410156,0
0.2640703210841166,1.477240800857544,0
0.2589427420339396,1.479917049407959,0
0.2657795141008423,1.4826350212097168,0
0.2699304114271761,1.4853463172912598,0
0.2660236845318031,1.4880352020263672,0
0.2555243560004883,1.4907622337341309,0
0.2643144915150774,1.493448257446289,0
0.2577218898791356,1.4961669445037842,0
0.2613844463435477,1.498894214630127,0
0.2706629227200585,1.501570701599121,0
0.2694420705652545,1.5042853355407717,0
0.2560126968624099,1.5070061683654783,0
0.2684653888414112,1.5096876621246338,0
0.2599194237577829,1.5123639106750488,0
0.2618727872054693,1.5151374340057373,0
0.2743254791844707,1.5178208351135254,0
0.2723721157367842,1.5204999446868896,0
0.2579660603100964,1.5232226848602295,0
0.2655353436698815,1.5272541046142578,0
0.259675253326822,1.5299839973449707,0
0.2665120253937247,1.532667875289917,0
0.2694420705652545,1.5353822708129885,0
0.2657795141008423,1.538367748260498,0
0.259675253326822,1.5410518646240234,0
0.2652911732389207,1.5437443256378174,0
0.2601635941887437,1.546757459640503,0
0.2696862409962153,1.5494492053985596,0
0.2723721157367842,1.5521442890167236,0
0.2691979001342937,1.5549018383026123,0
0.2630936393602734,1.557861566543579,0
0.2672445366866072,1.5605437755584717,0
0.2628494689293126,1.563267946243286,0
0.2716396044439018,1.565985918045044,0
0.2767671834940788,1.5689418315887451,0
0.2738371383225491,1.5716667175292969,0
0.267488707117568,1.5744118690490725,0
0.2743254791844707,1.577101230621338,0
0.2684653888414112,1.5800819396972656,0
0.276523013063118,1.5827722549438477,0
0.2782322060798436,1.5854921340942385,0
0.2750579904773531,1.5884912014007568,0
0.2679770479794896,1.591193675994873,0
0.2706629227200585,1.5939536094665527,0
0.2648028323769991,1.5966424942016602,0
0.2723721157367842,1.599598407745361,0
0.2755463313392747,1.6023180484771729,0
0.2711512635819801,1.6050395965576172,0
0.2645586619460383,1.607724666595459,0
0.2704187522890977,1.6107172966003418,0
0.2660236845318031,1.6134026050567627,0
0.2743254791844707,1.6161184310913086,0
0.276523013063118,1.6188409328460691,0
0.2704187522890977,1.6217970848083496,0
0.2652911732389207,1.6245219707489014,0
0.2704187522890977,1.6272449493408203,0
0.2645586619460383,1.630197048187256,0
0.2735929678915882,1.632885217666626,0
0.2750579904773531,1.6356453895568848,0
0.2706629227200585,1.6383321285247805,0
0.2645586619460383,1.641291618347168,0
0.2684653888414112,1.6440691947937012,0
0.2638261506531558,1.6467556953430176,0
0.271395434012941,1.64943528175354,0
0.2743254791844707,1.652423620223999,0
0.2694420705652545,1.6551406383514404,0
0.2645586619460383,1.6578550338745115,0
0.2691979001342937,1.6605405807495115,0
0.263581980222195,1.6634962558746338,0
0.2735929678915882,1.666260004043579,0
0.2750579904773531,1.668952226638794,0
0.2704187522890977,1.6719050407409668,0
0.2655353436698815,1.6746788024902344,0
0.2694420705652545,1.6773626804351809,0
0.2638261506531558,1.6800947189331057,0
0.272616286167745,1.6831700801849363,0
0.276523013063118,1.685941457748413,0
0.2711512635819801,1.6886472702026367,0
0.2684653888414112,1.691835641860962,0
0.2679770479794896,1.69494366645813,0
0.2665120253937247,1.6976714134216309,0
0.2779880356488828,1.7003800868988037,0
0.2767671834940788,1.7030632495880127,0
0.2667561958246855,1.7061009407043457,0
0.2718837748748626,1.7087886333465576,0
0.2677328775485288,1.7114689350128174,0
0.2657795141008423,1.7145018577575684,0
0.2784763765108045,1.7171943187713623,0
0.2762788426321572,1.7198798656463623,0
0.267488707117568,1.7226049900054932,0
0.271395434012941,1.725675106048584,0
0.2672445366866072,1.7283616065979004,0
0.2645586619460383,1.7310826778411863,0
0.2787205469417653,1.7337687015533447,0
0.2774996947869612,1.73677659034729,0
0.2655353436698815,1.739501953125,0
0.2723721157367842,1.7421846389770508,0
0.268709559272372,1.745178461074829,0
0.2655353436698815,1.7479031085968018,0
0.2804297399584909,1.7505841255187988,0
0.277743865217922,1.7532639503479004,0
0.2655353436698815,1.7562861442565918,0
0.2723721157367842,1.7589752674102783,0
0.267488707117568,1.7616779804229736,0
0.2655353436698815,1.7644217014312744,0
0.2789647173727261,1.767380714416504,0
0.2779880356488828,1.7701263427734375,0
0.2665120253937247,1.7728111743927002,0
0.2723721157367842,1.7757980823516846,0
0.2672445366866072,1.7785186767578125,0
0.2665120253937247,1.7811975479125977,0
0.2792088878036869,1.7839155197143557,0
0.2782322060798436,1.786892652511597,0
0.2652911732389207,1.7895922660827637,0
0.2738371383225491,1.79227876663208,0
0.2672445366866072,1.795051336288452,0
0.2652911732389207,1.7980151176452637,0
0.2784763765108045,1.8007123470306396,0
0.2782322060798436,1.8034467697143557,0
0.2677328775485288,1.8061580657958984,0
0.2743254791844707,1.8091182708740237,0
0.2677328775485288,1.8118386268615725,0
0.2655353436698815,1.81458044052124,0
0.2796972286656085,1.8175342082977293,0
0.2789647173727261,1.820258617401123,0
0.2665120253937247,1.8229382038116453,0
0.2735929678915882,1.8256721496582031,0
0.2667561958246855,1.82867693901062,0
0.2667561958246855,1.831359386444092,0
0.2801855695275301,1.8341162204742432,0
0.2789647173727261,1.8368048667907717,0
0.2655353436698815,1.8397645950317385,0
0.2750579904773531,1.84248948097229,0
0.268709559272372,1.84520959854126,0
0.2672445366866072,1.8478858470916748,0
0.2804297399584909,1.850879669189453,0
0.2794530582346477,1.853564500808716,0
0.2660236845318031,1.8562822341918943,0
0.272616286167745,1.859281301498413,0
0.2655353436698815,1.861974000930786,0
0.263581980222195,1.864696025848389,0
0.2772555243560004,1.8674194812774656,0
0.2757905017702355,1.870379447937012,0
0.2621169576364301,1.8730623722076416,0
0.2711512635819801,1.875816345214844,0
0.2640703210841166,1.878502368927002,0
0.2652911732389207,1.8814671039581297,0
0.2801855695275301,1.8842220306396484,0
0.2774996947869612,1.8869075775146484,0
0.2638261506531558,1.889617919921875,0
0.2738371383225491,1.8926010131835935,0
0.2665120253937247,1.8953392505645752,0
0.2672445366866072,1.898066759109497,0
0.2804297399584909,1.9010226726531985,0
0.2792088878036869,1.903720140457153,0
0.2665120253937247,1.906480312347412,0
0.2728604565987058,1.9091689586639404,0
0.2645586619460383,1.9121239185333248,0
0.2616286167745085,1.914886713027954,0
0.2745696496154315,1.917576789855957,0
0.2731046270296666,1.920271635055542,0
0.258454401172018,1.92323637008667,0
0.2679770479794896,1.926031351089477,0
0.2604077646197045,1.9287121295928955,0
0.2594310828958612,1.931436777114868,0
0.2718837748748626,1.934446096420288,0
0.2694420705652545,1.937134027481079,0
0.2560126968624099,1.9398505687713623,0
0.267488707117568,1.9428014755249023,0
0.2601635941887437,1.9455277919769287,0
0.259675253326822,1.948254108428955,0
0.2738371383225491,1.9509377479553225,0
0.2733487974606274,1.953965187072754,0
0.2586985716029788,1.956650972366333,0
0.2689537297033328,1.9593324661254885,0
0.2608961054816261,1.962050437927246,0
0.2608961054816261,1.965043306350708,0
0.2762788426321572,1.967734813690185,0
0.2735929678915882,1.9704530239105225,0
0.2621169576364301,1.9731345176696775,0
0.2706629227200585,1.9761266708374023,0
0.2618727872054693,1.9788494110107424,0
0.2640703210841166,1.9815354347229004,0
0.2811622512513734,1.9845249652862549,0
0.2774996947869612,1.987252950668335,0
0.2650470028079599,1.9899451732635496,0
0.2738371383225491,1.9926297664642332,0
0.2655353436698815,1.99566650390625,0
0.2655353436698815,1.998361587524414,0
0.2794530582346477,2.0010457038879395,0
0.2757905017702355,2.0037691593170166,0
0.262361128067391,2.0067577362060547,0
0.2731046270296666,2.009446382522583,0
0.2655353436698815,2.012168884277344,0
0.263581980222195,2.014889478683472,0
0.2774996947869612,2.017883777618408,0
0.2753021609083139,2.02057147026062,0
0.2621169576364301,2.023252487182617,0
0.2723721157367842,2.026297807693481,0
0.2638261506531558,2.0289855003356934,0
0.2608961054816261,2.0316684246063232,0
0.2738371383225491,2.03442120552063,0
0.272616286167745,2.037386417388916,0
0.2594310828958612,2.04007625579834,0
0.2701745818581369,2.042800188064575,0
0.2613844463435477,2.045516967773437,0
0.2621169576364301,2.0484697818756104,0
0.2762788426321572,2.051194906234741,0
0.2743254791844707,2.053926944732666,0
0.2606519350506653,2.0566225051879883,0
0.2660236845318031,2.0596368312835693,0
0.2594310828958612,2.06231951713562,0
0.2621169576364301,2.0650384426116943,0
0.268709559272372,2.06803297996521,0
0.2721279453058234,2.07072114944458,0
0.2579660603100964,2.073402404785156,0
0.2699304114271761,2.0761544704437256,0
0.2616286167745085,2.0791146755218506,0
0.2621169576364301,2.081838369369507,0
0.2770113539250396,2.0845627784729004,0
0.2748138200463923,2.0872509479522705,0
0.2577218898791356,2.090259075164795,0
0.2735929678915882,2.092952251434326,0
0.2657795141008423,2.095667600631714,0
0.2655353436698815,2.0984065532684326,0
0.2770113539250396,2.1013753414154053,0
0.2757905017702355,2.104095220565796,0
0.2621169576364301,2.106817483901977,0
0.2718837748748626,2.1097748279571533,0
0.2633378097912342,2.1124579906463623,0
0.262361128067391,2.115213632583618,0
0.2774996947869612,2.1178958415985107,0
0.2753021609083139,2.1208536624908447,0
0.2604077646197045,2.123573064804077,0
0.272616286167745,2.1262898445129395,0
0.2638261506531558,2.128971576690674,0
0.2628494689293126,2.131965398788452,0
0.2770113539250396,2.134692430496216,0
0.2750579904773531,2.137381792068481,0
0.2608961054816261,2.140104293823242,0
0.2733487974606274,2.1430647373199463,0
0.2633378097912342,2.1458396911621094,0
0.2606519350506653,2.1485280990600586,0
0.276523013063118,2.1514806747436523,0
0.2691979001342937,2.154235601425171,0
0.2535709925528018,2.156912088394165,0
0.2696862409962153,2.159592628479004,0
0.2628494689293126,2.162569999694824,0
0.2640703210841166,2.165372610092163,0
0.2735929678915882,2.1680538654327397,0
0.2743254791844707,2.170780897140503,0
0.2618727872054693,2.1745550632476807,0
0.272616286167745,2.1772475242614746,0
0.2655353436698815,2.179973840713501,0
0.2711512635819801,2.182689905166626,0
0.2753021609083139,2.185405731201172,0
0.2716396044439018,2.188127040863037,0
0.2591869124649004,2.190840482711792,0
0.2652911732389207,2.1935479640960693,0
0.2589427420339396,2.196321964263916,0
0.2613844463435477,2.199009895324707,0
0.2648028323769991,2.2017264366149902,0
0.2657795141008423,2.204442024230957,0
0.253326822121841,2.207118511199951,0
0.2572335490172139,2.2098331451416016,0
0.2601635941887437,2.2125132083892822,0
0.2716396044439018,2.215224504470825,0
0.2823831034061774,2.217942714691162,2
0.2899523867659626,2.22062349319458,2
0.2894640459040409,2.223306894302368,2
0.3014283970211207,2.226062774658203,2
0.2931266023684531,2.2287423610687256,2
0.2928824319374923,2.2314274311065674,2
0.3031375900378463,2.2341771125793457,2
0.2989866927115125,2.236863851547241,2
0.2889757050421193,2.2395448684692383,2
0.2965449884019044,2.2422778606414795,2
0.2941032840922963,2.244990348815918,2
0.2926382615065315,2.2476720809936523,2
0.3214503723599071,2.25039005279541,2
0.3324380417531436,2.253073215484619,2
0.3302405078744963,2.2557828426361084,2
0.3361005982175558,2.258508443832397,2
0.3592967891588328,2.261194467544556,2
0.347332438041753,2.2639060020446777,2
0.3402514955438895,2.266624927520752,2
0.3351239164937125,2.2693123817443848,2
0.3312171895983395,2.271989345550537,2
0.3258454401172017,2.2747485637664795,2
0.3419606885606152,2.277430772781372,2
0.3610059821755584,2.280118942260742,2
0.3495299719204003,2.2828686237335205,2
0.3578317665730679,2.2855870723724365,2
0.3639360273470882,2.2882730960845947,2
0.3595409595897936,2.2910027503967285,2
0.3668660725186179,2.29369592666626,2
0.365401049932853,2.296438694000244,2
0.4003174215602489,2.2991671562194824,2
0.4220485899157611,2.3018476963043213,2
0.429862043706507,2.3045589923858643,2
0.46087168843853,2.307284355163574,2
0.4804053229153948,2.3099653720855717,2
0.4728360395556097,2.3126471042633057,2
0.5097057746306923,2.315394639968872,2
0.5382737150531072,2.318077325820923,2
0.5224026370406545,2.3207523822784424,2
0.5033573434257113,2.323482036590576,2
0.552679770479795,2.3261969089508057,2
0.5502380661701869,2.3288793563842773,2
0.5270418752289099,2.331602096557617,2
0.511414967647418,2.3343214988708496,2
0.4987181052374556,2.3370144367218018,2
0.4764985960200218,2.3397676944732666,2
0.4708826761079232,2.3424506187438965,2
0.4904163105847881,2.345168113708496,2
0.5199609327310464,2.3478903770446777,2
0.5324136247100477,2.3505709171295166,2
0.5665974850445612,2.353254556655884,2
0.565620803320718,2.35601544380188,2
0.5595165425466977,2.358705282211304,2
0.5470638505676964,2.361386299133301,2
0.5302160908314004,2.364144325256348,2
0.5233793187644977,2.366828680038452,2
0.5109266267854964,2.369509696960449,2
0.5412037602246369,2.3722355365753174,2
0.5634232694420707,2.3750274181365967,2
0.5946770846050544,2.377748250961304,2
0.6217800024417044,2.380439043045044,2
0.6193382981320963,2.383129358291626,2
0.6232450250274693,2.3858859539031982,2
0.6046880722744477,2.3885722160339355,2
0.6051764131363693,2.391255140304565,2
0.6100598217555855,2.3940389156341557,2
0.6405811256256868,2.396733283996582,2
0.6508362837260409,2.399420022964477,2
0.6295934562324503,2.402148485183716,2
0.6073739470150166,2.4048757553100586,2
0.590037846416799,2.407556772232056,2
0.6076181174459774,2.410284757614136,2
0.5983396410694666,2.412969827651977,2
0.64155780734953,2.4157040119171143,2
0.6649981687217679,2.418426752090454,2
0.7069954828470273,2.421112537384033,2
0.7035770968135759,2.423818588256836,2
0.7265291173238921,2.426556348800659,2
0.7519228421438164,2.42923641204834,2
0.7372726162861678,2.4319210052490234,2
0.7387376388719327,2.4346845149993896,2
0.8080820412648029,2.4373698234558105,2
0.7824441460139178,2.4400529861450195,2
0.787327554633134,2.442776918411255,2
0.8361616408252961,2.4454867839813232,2
0.8752289097790258,2.4481561183929443,2
0.8742522280551825,2.450880527496338,2
0.8937858625320474,2.45357084274292,2
0.8952508851178123,2.456277847290039,2
0.8954950555487731,2.4589977264404297,2
0.8674154559882798,2.4616761207580566,2
0.8588694909046515,2.4643917083740234,2
0.8459284580637285,2.4671173095703125,2
0.8278598461726285,2.4698054790496826,2
0.8000244170430961,2.472492218017578,2
0.779514100842388,2.4752509593963623,2
0.7560737394701502,2.477933883666992,2
0.7648638749847394,2.480618476867676,2
0.8359174703943353,2.483349084854126,2
0.8273715053107069,2.48606538772583,2
0.8322549139299231,2.488745927810669,2
0.8183371993651569,2.491466760635376,2
0.8010010987669394,2.4941961765289307,2
0.8263948235868637,2.4968807697296143,2
0.8408008790135515,2.499611616134644,2
0.8263948235868637,2.50229811668396,2
0.7988035648882921,2.505061149597168,2
0.778293248687584,2.50778865814209,2
0.7931876449761934,2.5104706287384038,2
0.7790257599804664,2.5131590366363525,2
0.7824441460139178,2.516068458557129,2
0.7580271029178367,2.5187647342681885,2
0.7340984006836773,2.521824598312378,2
0.7272616286167746,2.524556875228882,2
0.7362959345623246,2.527274370193481,2
0.7179831522402638,2.530013084411621,2
0.718959833964107,2.532698392868042,2
0.7265291173238921,2.535450935363769,2
0.7030887559516543,2.538203716278076,2
0.6994261994872422,2.5408871173858643,2
0.7001587107801246,2.543571710586548,2
0.681601758027103,2.5463404655456543,2
0.6559638627762179,2.549036026000977,2
0.6525454767427665,2.551718473434448,2
0.6337443535587841,2.554473876953125,2
0.6632889757050422,2.557164669036865,2
0.6637773165669638,2.559847831726074,2
0.6806250763032597,2.5625760555267334,2
0.6645098278598462,2.565288543701172,2
0.6554755219142963,2.5679755210876465,2
0.6349652057135882,2.570698976516724,2
0.6112806739103895,2.5733838081359863,2
0.6239775363203517,2.5761072635650635,2
0.6112806739103895,2.5788369178771973,2
0.6017580271029179,2.5815212726593018,2
0.6103039921865463,2.584247589111328,2
0.5929678915883287,2.586977958679199,2
0.5753876205591504,2.589670419692993,2
0.5622024172872666,2.592359781265259,2
0.5558539860822855,2.595139265060425,2
0.5460871688438531,2.597830295562744,2
0.5492613844463436,2.6005189418792725,2
0.5490172140153828,2.603241443634033,2
0.5624465877182274,2.60595965385437,2
0.5477963618605788,2.6086442470550537,2
0.5375412037602247,2.611371755599976,2
0.5289952386765964,2.6140918731689453,2
0.5177633988523991,2.61677622795105,2
0.5031131729947504,2.619503259658813,2
0.4899279697228664,2.622197389602661,2
0.4962764009278475,2.6249165534973145,2
0.529483579538518,2.627643823623657,2
0.5148333536808694,2.630331754684448,2
0.5236234891954585,2.633018970489502,2
0.5263093639360275,2.635774612426758,2
0.5304602612623612,2.638466119766236,2
0.5121474789403004,2.6411564350128174,2
0.5060432181662802,2.64392352104187,2
0.502380661701868,2.6466104984283447,2
0.5148333536808694,2.6493043899536133,2
0.5121474789403004,2.652029514312744,2
0.4992064460993772,2.654782056808472,2
0.4938346966182394,2.657488346099853,2
0.4882187767061408,2.6602160930633545,2
0.4940788670492002,2.6629080772399902,2
0.4813820046392381,2.6656486988067627,2
0.4923696740324745,2.668363094329834,2
0.4774752777438651,2.671050310134888,2
0.4774752777438651,2.6737802028656006,2
0.4962764009278475,2.676499128341675,2
0.4806494933463556,2.679187536239624,2
0.4730802099865705,2.6819615364074707,2
0.4906604810157489,2.684766292572021,2
0.4845562202417286,2.687455177307129,2
0.4862654132584543,2.6901838779449463,2
0.5172750579904775,2.692863941192627,2
0.5214259553168112,2.695606231689453,2
0.5119033085093396,2.6983463764190674,2
0.521670125747772,2.701028823852539,2
0.5079965816139667,2.7037172317504883,2
0.4940788670492002,2.7064874172210693,2
0.5109266267854964,2.709171772003174,2
0.506287388597241,2.7118499279022217,2
0.493102185325357,2.7146155834198,2
0.4996947869612989,2.7173120975494385,2
0.4874862654132583,2.7200019359588623,2
0.4706385056769624,2.72273063659668,2
0.4689293126602367,2.725451707839966,2
0.4606275180075692,2.728143215179444,2
0.4540349163716273,2.730867624282837,2
0.4508607007691367,2.733555793762207,2
0.4430472469783908,2.7363555431365967,2
0.4423147356855084,2.7390856742858887,2
0.4274203393968989,2.7417712211608887,2
0.4149676474178976,2.744490146636963,2
0.4122817726773287,2.7472193241119385,2
0.4142351361250151,2.749903440475464,2
0.4181418630203881,2.7525827884674072,2
0.4022707850079354,2.755348920822144,2
0.4103284092296422,2.7580385208129883,2
0.4161884995727016,2.7607216835021973,2
0.4061775119033084,2.7634527683258057,2
0.401538273715053,2.766169309616089,2
0.4022707850079354,2.7688581943511963,2
0.3895739225979733,2.7715835571289062,2
0.3837138322549138,2.7743232250213623,2
0.3973873763887192,2.777001142501831,2
0.392503967769503,2.779730796813965,2
0.4086192162129165,2.782414197921753,2
0.4181418630203881,2.785134077072144,2
0.4249786350872908,2.7878611087799072,2
0.4215602490538395,2.790550947189331,2
0.4100842387986814,2.7932307720184326,2
0.4073983640581124,2.7960104942321777,2
0.3968990355267976,2.798703193664551,2
0.405445000610426,2.801393508911133,2
0.4032474667317787,2.804162979125977,2
0.3915272860456598,2.8068463802337646,2
0.3773654010499327,2.809530258178711,2
0.3722378219997557,2.8122599124908447,2
0.365401049932853,2.814974308013916,2
0.3617384934684409,2.8176817893981934,2
0.3556342326944206,2.820383071899414,2
0.3478207789036747,2.823071956634521,2
0.3434257111463801,2.825822114944458,2
0.3397631546819679,2.828518867492676,2
0.3400073251129287,2.8312017917633057,2
0.3456232450250274,2.833951950073242,2
0.3382981320962031,2.836644411087036,2
0.328042973995849,2.83933687210083,2
0.3317055304602612,2.84206771850586,2
0.3234037358075936,2.8447885513305664,2
0.3143694298620436,2.847472667694092,2
0.3224270540837504,2.8501904010772705,2
0.3212062019289463,2.8528761863708496,2
0.313881089000122,2.8555917739868164,2
0.3172994750335733,2.8583126068115234,2
0.3172994750335733,2.860999584197998,2
0.3082651690880233,2.863687753677368,2
0.2999633744353558,2.8664422035217285,2
0.2960566475399828,2.8691306114196777,2
0.2970333292638261,2.871846914291382,2
0.3116835551214747,2.874610662460327,2
0.3148577707239652,2.8772974014282227,2
0.3212062019289463,2.8799848556518555,2
0.3192528384812598,2.882713079452514,2
0.3246245879623977,2.885427474975586,2
0.3143694298620436,2.888106346130371,2
0.3380539616652422,2.890836000442505,2
0.3475766084727139,2.893526554107666,2
0.3534366988157733,2.896284580230713,2
0.4071541936271516,2.899019956588745,2
0.3968990355267976,2.901706457138061,2
0.3937248199243071,2.9044246673583984,2
0.392503967769503,2.907151937484741,2
0.3759003784641679,2.909836769104004,2
0.3690636063972652,2.912518262863159,2
0.3673544133805395,2.915274143218994,2
0.3695519472591868,2.917962074279785,2
0.365401049932853,2.9206464290618896,2
0.3553900622634598,2.923377275466919,2
0.3595409595897936,2.926097631454468,2
0.3485532901965571,2.928783893585205,2
0.3712611402759125,2.931507110595703,2
0.419606885606153,2.93422532081604,2
0.4423147356855084,2.936907291412353,2
0.4542790868025881,2.9396376609802246,2
0.4501281894762543,2.94232439994812,2
0.4384080087901354,2.945042610168457,2
0.4327920888780368,2.947767972946167,2
0.4493956781833719,2.950448036193848,2
0.4423147356855084,2.953127384185791,2
0.4313270662922719,2.9558796882629395,2
0.4386521792210962,2.958563804626465,2
0.4418263948235867,2.961247205734253,2
0.4359663044805273,2.964085578918457,2
0.43376877060188,2.9667766094207764,2
0.4254669759492124,2.9694666862487797,2
0.4132584544011719,2.972186088562012,2
0.4061775119033084,2.974914789199829,2
0.4122817726773287,2.977611780166626,2
0.3993407398364057,2.980320453643799,2
0.4044683188865827,2.983003616333008,2
0.4174093517275057,2.985757827758789,2
0.4052008301794652,2.988447427749634,2
0.3949456720791111,2.991130828857422,2
0.4086192162129165,2.993886709213257,2
0.4008057624221706,2.996581554412842,2
0.4005615919912098,2.999271869659424,2
0.3927481382004638,3.002004623413086,2
0.3961665242339152,3.0047264099121094,2
0.3780979123428152,3.0074119567871094,2
0.3788304236356976,3.010136842727661,2
0.3768770601880111,3.0128209590911865,2
0.3622268343303625,3.0155575275421143,2
0.3680869246734219,3.018287420272827,2
0.3566109144182638,3.02096962928772,2
0.3465999267488706,3.023660182952881,2
0.3632035160542057,3.026416778564453,2
0.3566109144182638,3.029100179672241,2
0.3468440971798314,3.0317840576171875,2
0.3531925283848125,3.034542322158813,2
0.3456232450250274,3.0372238159179688,2
0.3299963374435355,3.0399129390716557,2
0.3407398364058112,3.042635917663574,2
0.3329263826150652,3.0453648567199707,2
0.3407398364058112,3.0480520725250244,2
0.3544133805396166,3.0508053302764893,2
0.3492858014894395,3.0534932613372803,2
0.3361005982175558,3.056206226348877,2
0.3497741423513612,3.058927536010742,2
0.350018312782322,3.0616180896759038,2
0.3453790745940666,3.064328908920288,2
0.3597851300207544,3.0670552253723145,2
0.3707727994139909,3.06974458694458,2
0.3632035160542057,3.072432041168213,2
0.3832254913929922,3.0751802921295166,2
0.3827371505310706,3.077864408493042,2
0.3671102429495787,3.080548048019409,2
0.3722378219997557,3.083275079727173,2
0.3729703332926382,3.0859920978546143,2
0.3719936515687949,3.088679075241089,2
0.360273470882676,3.0914053916931152,2
0.3534366988157733,3.0941200256347656,2
0.3400073251129287,3.0968151092529297,2
0.3309730191673787,3.099549531936645,2
0.3361005982175558,3.1022279262542725,2
0.3243804175314368,3.104944229125977,2
0.3224270540837504,3.107672929763794,2
0.3351239164937125,3.1103572845458984,2
0.3260896105481625,3.113036155700684,2
0.3185203271883774,3.1157851219177246,2
0.3368331095104382,3.1184725761413574,2
0.3258454401172017,3.1211557388305664,2
0.3133927481382004,3.1239020824432373,2
0.337077279941399,3.126589775085449,2
0.3273104627029666,3.1292731761932373,2
0.3312171895983395,3.132000207901001,2
0.3534366988157733,3.134735584259033,2
0.3527041875228909,3.1374189853668213,2
0.3395189842510071,3.140142679214477,2
0.3507508240752044,3.142829418182373,2
0.3419606885606152,3.145579099655152,2
0.3400073251129287,3.148288488388061,2
0.3451349041631057,3.1509718894958496,2
0.3439140520083017,3.1536707878112797,2
0.333170553046026,3.156404972076416,2
0.3299963374435355,3.159191370010376,2
0.3221828836527896,3.161923408508301,2
0.3058234647784152,3.164646625518799,2
0.3155902820168477,3.167332172393799,2
0.3133927481382004,3.1700639724731445,2
0.2999633744353558,3.1727519035339355,2
0.3077768282261017,3.175476551055908,2
0.3063118056403369,3.178208351135254,2
0.3031375900378463,3.1808969974517822,2
0.3180319863264558,3.183579206466675,2
0.3187644976193382,3.186338186264038,2
0.3097301916737882,3.18902587890625,2
0.3265779514100841,3.191712617874145,2
0.3351239164937125,3.1944758892059326,2
0.337077279941399,3.1971747875213623,2
0.3419606885606152,3.1998627185821533,2
0.3368331095104382,3.202597379684448,2
0.3390306433890855,3.2066457271575928,2
0.3378097912342814,3.209333896636963,2
0.3353680869246733,3.212055206298828,2
0.3343914052008301,3.214777708053589,2
0.3260896105481625,3.217803955078125,2
0.3234037358075936,3.2204976081848145,2
0.3116835551214747,3.22317886352539,2
0.3126602368453179,3.2259318828582764,2
0.3060676352093761,3.2288920879364014,2
0.3002075448663166,3.2315800189971924,2
0.308753509949945,3.2343380451202397,2
0.3053351239164936,3.237290143966675,2
0.2928824319374923,3.2399868965148926,2
0.2989866927115125,3.242705583572388,2
0.294591624954218,3.24542236328125,2
0.2882431937492369,3.248380422592163,2
0.2909290684898058,3.251108407974243,2
0.2831156146990599,3.25383734703064,2
0.2804297399584909,3.256525754928589,2
0.2928824319374923,3.259511947631836,2
0.295812477109022,3.262195348739624,2
0.3116835551214747,3.264910936355591,2
0.3124160664143571,3.267637014389038,2
0.3187644976193382,3.2705888748168945,2
0.3065559760712977,3.273269891738892,2
0.3055792943474544,3.2760181427001958,2
0.2977658405567085,3.278959035873413,2
0.2848248077157855,3.281665563583374,2
0.2931266023684531,3.284398078918457,2
0.2899523867659626,3.287078857421875,2
0.2862898303015504,3.29006576538086,2
0.2926382615065315,3.2927498817443848,2
0.2987425222805517,3.2954676151275635,2
0.300940056159199,3.2982053756713867,2
0.3165669637406909,3.301168918609619,2
0.3141252594310828,3.3038923740386963,2
0.3058234647784152,3.306640863418579,2
0.3031375900378463,3.309328317642212,2
0.2950799658161396,3.3122832775115967,2
0.2838481259919423,3.3150441646575928,2
0.2938591136613355,3.317732095718384,2
0.2938591136613355,3.320687294006348,2
0.2831156146990599,3.323415756225586,2
0.2860456598705896,3.3261427879333496,2
0.2774996947869612,3.328829050064087,2
0.2694420705652545,3.3318309783935547,2
0.2784763765108045,3.334550380706787,2
0.2784763765108045,3.3372364044189453,2
0.2733487974606274,3.339966058731079,2
0.2755463313392747,3.3429276943206787,2
0.2672445366866072,3.3456597328186035,2
0.271395434012941,3.3483688831329346,2
0.2872665120253936,3.3510501384735107,2
0.2909290684898058,3.3540821075439453,2
0.2872665120253936,3.356773614883423,2
0.2987425222805517,3.359460592269897,2
0.2987425222805517,3.3624496459960938,2
0.3055792943474544,3.36517596244812,2
0.3202295202051031,3.367856502532959,2
0.3185203271883774,3.370579719543457,2
0.3046026126236112,3.373530626296997,2
0.3124160664143571,3.376281976699829,2
0.304846783054572,3.379002094268799,2
0.3028934196068855,3.381690740585327,2
0.3163227933097301,3.384681224822998,2
0.3160786228787693,3.387403964996338,2
0.3072884873641801,3.3900907039642334,2
0.3121718959833963,3.392775535583496,2
0.3006958857282382,3.395805597305298,2
0.2933707727994139,3.398500442504883,2
0.3070443169332193,3.4011919498443604,2
0.3046026126236112,3.4042317867279053,2
0.2899523867659626,3.406925916671753,2
0.2977658405567085,3.4096367359161377,2
0.2938591136613355,3.412360191345215,2
0.3046026126236112,3.4153738021850586,2
0.3094860212428274,3.418111562728882,2
0.3075326577951409,3.4208033084869385,2
0.2941032840922963,3.423488140106201,2
0.3055792943474544,3.4265336990356445,2
0.2960566475399828,3.4292213916778564,2
0.2894640459040409,3.4319047927856445,2
0.3046026126236112,3.434669256210327,2
0.3004517152972774,3.437630176544189,2
0.2897082163350017,3.440321922302246,2
0.3028934196068855,3.443047523498535,2
0.2938591136613355,3.4460320472717285,2
0.2999633744353558,3.4487240314483643,2
0.3085093395189842,3.451453924179077,2
0.3082651690880233,3.454464912414551,2
0.2909290684898058,3.458260059356689,2
0.2909290684898058,3.462099075317383,2
0.2753021609083139,3.465031385421753,2
0.2882431937492369,3.467848300933838,2
0.2843364668538639,3.471390962600708,2
0.2696862409962153,3.4748787879943848,2
0.2779880356488828,3.47763466835022,2
0.2733487974606274,3.480519294738769,2
0.2811622512513734,3.4836153984069824,2
0.2843364668538639,3.487163782119751,2
0.2743254791844707,3.4903008937835693,2
0.2818947625442558,3.493370532989502,2
0.2731046270296666,3.496912002563477,2
0.2796972286656085,3.5000550746917725,2
0.2843364668538639,3.5031137466430664,2
0.2750579904773531,3.506687641143799,2
0.2792088878036869,3.5097012519836426,2
0.272616286167745,3.512824535369873,2
0.2792088878036869,3.5161073207855225,2
0.290684898058845,3.519308567047119,2
0.2933707727994139,3.5224711894989014,2
0.2901965571969234,3.5259690284729004,2
0.2887315346111585,3.529017448425293,2
0.2860456598705896,3.53199315071106,2
0.2931266023684531,3.5355916023254395,2
0.2879990233182761,3.538491725921631,2
0.2762788426321572,3.541236400604248,2
0.2875106824563544,3.544792413711548,2
0.281650592113295,3.547980546951294,2
0.2938591136613355,3.5507302284240723,2
0.291905750213649,3.5534555912017822,2
0.2796972286656085,3.556966543197632,2
0.2899523867659626,3.5600719451904297,2
0.2833597851300207,3.5631511211395264,2
0.2889757050421193,3.5666937828063965,2
0.2931266023684531,3.56986403465271,2
0.2843364668538639,3.572938680648804,2
0.2875106824563544,3.576425552368164,2
0.2821389329752166,3.579611301422119,2
0.2823831034061774,3.58264422416687,2
0.2938591136613355,3.5861778259277344,2
0.2887315346111585,3.5892136096954346,2
0.2921499206446099,3.5922350883483887,2
0.2938591136613355,3.595757484436035,2
0.2889757050421193,3.598778009414673,2
0.3038701013307288,3.601708173751831,2
0.3011842265901598,3.605209827423096,2
0.285557319008668,3.608132123947144,2
0.2911732389207666,3.6113803386688232,2
0.2860456598705896,3.6146299839019775,2
0.3011842265901598,3.617409229278565,2
0.2984983518495909,3.620633840560913,2
0.2843364668538639,3.623700857162476,2
0.2960566475399828,3.62699031829834,2
0.2889757050421193,3.629732370376587,2
0.2882431937492369,3.632685899734497,2
0.2999633744353558,3.6359596252441406,2
0.3016725674520815,3.637451887130737,2
0.2931266023684531,3.63900089263916,2
0.2872665120253936,3.64056921005249,2
0.2970333292638261,3.642228841781616,2
0.2953241362471004,3.643868923187256,2
0.2911732389207666,3.6456551551818848,2
0.2901965571969234,3.6472597122192383,2
0.2987425222805517,3.648781538009644,2
0.3046026126236112,3.6504368782043457,2
0.3026492491759247,3.6518783569335938,2
0.3070443169332193,3.653499841690064,2
0.3011842265901598,3.65532660484314,2
0.291905750213649,3.656803131103516,2
0.2999633744353558,3.658404588699341,2
0.3038701013307288,3.659862279891968,2
0.3038701013307288,3.661376714706421,2
0.2970333292638261,3.662895679473877,2
0.2950799658161396,3.664637565612793,2
0.3014283970211207,3.666088342666626,2
0.3038701013307288,3.6676177978515625,2
0.3011842265901598,3.6692190170288086,2
0.304846783054572,3.670729875564575,2
0.2967891588328653,3.6721017360687256,2
0.2894640459040409,3.673597574234009,2
0.2972774996947869,3.6753954887390137,2
0.2970333292638261,3.6769683361053462,2
0.2931266023684531,3.6784863471984863,2
0.2921499206446099,3.680044412612915,2
0.2931266023684531,3.6816372871398926,2
0.3055792943474544,3.683237075805664,2
0.3097301916737882,3.685117244720459,2
0.3102185325357098,3.6866936683654794,2
0.304846783054572,3.6882596015930176,2
0.2970333292638261,3.689855575561523,2
0.299719204004395,3.691408157348633,2
0.3024050787449639,3.692845344543457,2
0.2987425222805517,3.6947238445281982,2
0.2950799658161396,3.696311473846436,2
0.2953241362471004,3.6977968215942383,2
0.3026492491759247,3.699338674545288,2
0.3085093395189842,3.700787305831909,2
0.304846783054572,3.7021987438201904,2
0.308753509949945,3.703566551208496,2
0.3002075448663166,3.7051382064819336,2
0.291905750213649,3.70650863647461,2
0.294591624954218,3.707852602005005,2
0.2999633744353558,3.7091915607452393,2
0.2960566475399828,3.710536003112793,2
0.2909290684898058,3.711878776550293,2
0.2921499206446099,3.713218688964844,2
0.2928824319374923,3.714747667312622,2
0.3031375900378463,3.716094493865967,2
0.3077768282261017,3.7174384593963614,2
0.3036259308997679,3.718780279159546,2
0.3050909534855328,3.7201218605041504,2
0.2980100109876693,3.721461772918701,2
0.2901965571969234,3.722823858261109,2
0.2887315346111585,3.724331855773926,2
0.2967891588328653,3.725683450698853,2
0.2933707727994139,3.727026462554932,2
0.2892198754730801,3.72836709022522,2
0.2889757050421193,3.729727268218994,2
0.2894640459040409,3.731067657470703,2
0.2965449884019044,3.732411146163941,2
0.3028934196068855,3.7337496280670166,2
0.3006958857282382,3.735317707061768,2
0.3011842265901598,3.736664533615112,2
0.2921499206446099,3.739316940307617,2
0.2882431937492369,3.741996288299561,2
0.2889757050421193,3.744996309280396,2
0.2848248077157855,3.747722148895264,2
0.2977658405567085,3.7504029273986816,2
0.2960566475399828,3.7530906200408936,2
0.2877548528873153,3.756128072738648,2
0.2853131485777072,3.758814573287964,2
0.2836039555609815,3.761498212814331,2
0.2809180808204126,3.7645325660705566,2
0.294591624954218,3.767224073410034,2
0.2926382615065315,3.769943237304688,2
0.2853131485777072,3.7726175785064697,2
0.282871444268099,3.7756187915802,2
0.2811622512513734,3.778348445892334,2
0.2789647173727261,3.781035661697388,2
0.2909290684898058,3.783726453781128,2
0.2899523867659626,3.786752462387085,2
0.282871444268099,3.789435863494873,2
0.2811622512513734,3.7921242713928223,2
0.2794530582346477,3.795158624649048,2
0.2740813087535099,3.7978439331054688,2
0.2870223415944328,3.800536632537842,2
0.2848248077157855,3.8032751083374015,2
0.2755463313392747,3.806288242340088,2
0.2792088878036869,3.8089988231658936,2
0.2794530582346477,3.81173324584961,2
0.2753021609083139,3.814731121063232,2
0.2872665120253936,3.8174374103546143,2
0.2836039555609815,3.820162534713745,2
0.2774996947869612,3.822840452194214,2
0.2789647173727261,3.8258790969848633,2
0.2753021609083139,3.828571796417236,2
0.2728604565987058,3.8312599658966064,2
0.2850689781467463,3.8340275287628174,2
0.2840922964229031,3.8369839191436768,2
0.2753021609083139,3.839676380157471,2
0.276523013063118,3.8423995971679688,2
0.2743254791844707,3.8453891277313232,2
0.271395434012941,3.848073959350586,2
0.2872665120253936,3.850797414779663,2
0.2860456598705896,3.853483438491821,2
0.2794530582346477,3.8572568893432617,2
0.285557319008668,3.859984397888184,2
0.276523013063118,3.862700939178467,2
0.2753021609083139,3.865421295166016,2
0.2882431937492369,3.868145227432251,2
0.2850689781467463,3.870829820632935,2
0.2723721157367842,3.873513698577881,2
0.276523013063118,3.876268148422241,2
0.2699304114271761,3.8789548873901367,2
0.2662678549627639,3.8816521167755127,2
0.2806739103894518,3.884394407272339,2
0.2784763765108045,3.8870811462402335,2
0.2691979001342937,3.88980770111084,2
0.272616286167745,3.892493963241577,2
0.2694420705652545,3.895226001739502,2
0.2660236845318031,3.897946834564209,2
0.2794530582346477,3.900629997253418,2
0.2779880356488828,3.903327703475952,2
0.2706629227200585,3.906092643737793,2
0.2691979001342937,3.9087867736816406,2
0.2716396044439018,3.9114606380462646,2
0.2660236845318031,3.91420578956604,2
0.2762788426321572,3.916886329650879,2
0.276523013063118,3.9195730686187744,2
0.2743254791844707,3.92229437828064,2
0.2660236845318031,3.92511796951294,2
0.2723721157367842,3.927801370620728,2
0.2667561958246855,3.9305245876312256,2
0.2738371383225491,3.93320107460022,2
0.2804297399584909,3.9359209537506095,2
0.2770113539250396,3.9386403560638423,2
0.2655353436698815,3.941318273544312,2
0.2753021609083139,3.944032430648804,2
0.2677328775485288,3.946757078170776,2
0.2691979001342937,3.949440956115722,2
0.2792088878036869,3.952124357223511,2
0.276523013063118,3.954876184463501,2
0.2599194237577829,3.957553148269653,2
0.2731046270296666,3.960231065750122,2
0.2640703210841166,3.962949275970459,2
0.2626052984983518,3.965656042098999,2
0.2779880356488828,3.968332767486572,2
0.2743254791844707,3.9710426330566406,2
0.2613844463435477,3.9737236499786377,2
0.2694420705652545,3.976453065872192,2
0.2608961054816261,3.979171514511109,2
0.2594310828958612,3.981845140457153,2
0.2723721157367842,3.9845664501190186,2
0.2699304114271761,3.9872853755950928,2
0.2594310828958612,3.9899685382843018,2
0.2655353436698815,3.992645978927612,2
0.2621169576364301,3.995408058166504,2
0.2601635941887437,3.998089551925659,2
0.2733487974606274,4.000770568847656,2
0.2704187522890977,4.003504514694214,2
0.263581980222195,4.006227970123291,2
0.2626052984983518,4.008911609649658,2
0.2626052984983518,4.011636734008789,2
0.2569893785862531,4.014355897903442,2
0.268709559272372,4.017042398452759,2
0.2735929678915882,4.01976203918457,2
0.2667561958246855,4.022442102432251,2
0.2618727872054693,4.025150537490845,2
0.2699304114271761,4.027872800827026,2
0.2645586619460383,4.030550003051758,2
0.2694420705652545,4.033229827880859,2
0.2757905017702355,4.035987615585327,2
0.271395434012941,4.038670539855957,2
0.259675253326822,4.041351795196533,0
0.2679770479794896,4.044100046157837,0
0.2601635941887437,4.046778440475464,0
0.2626052984983518,4.049461841583252,0
0.2731046270296666,4.052187919616699,0
0.2721279453058234,4.054906606674194,0
0.2582102307410572,4.057605028152466,0
0.2704187522890977,4.060308456420898,0
0.2613844463435477,4.062987804412842,0
0.2618727872054693,4.065739870071411,0
0.2755463313392747,4.068415880203247,0
0.272616286167745,4.071096658706665,0
0.2599194237577829,4.073858261108398,0
0.2684653888414112,4.076550722122192,0
0.2606519350506653,4.079228639602661,0
0.259675253326822,4.081949710845947,0
0.2733487974606274,4.084664583206177,0
0.2716396044439018,4.0873425006866455,0
0.2626052984983518,4.0900609493255615,0
0.2665120253937247,4.092748641967773,0
0.2633378097912342,4.095477104187012,0
0.2608961054816261,4.098193883895874,0
0.2745696496154315,4.100877285003662,0
0.2704187522890977,4.10356593132019,0
0.2655353436698815,4.1063408851623535,0
0.2648028323769991,4.10903000831604,0
0.2633378097912342,4.111707448959351,0
0.2608961054816261,4.11446213722229,0
0.2743254791844707,4.117152690887451,0
0.2711512635819801,4.119847774505615,0
0.2682212184104504,4.122576951980591,0
0.2633378097912342,4.125292778015137,0
0.2679770479794896,4.127975702285767,0
0.263581980222195,4.130709171295166,0
0.2704187522890977,4.133392333984375,0
0.2743254791844707,4.1361083984375,0
0.271395434012941,4.138836145401001,0
0.2604077646197045,4.1415114402771,0
0.2696862409962153,4.144269704818726,0
0.2628494689293126,4.147072076797485,0
0.2665120253937247,4.149755001068115,0
0.2735929678915882,4.152438640594482,0
0.271395434012941,4.155188322067261,0
0.2577218898791356,4.157878160476685,0
0.2691979001342937,4.160562515258789,0
0.2616286167745085,4.163290977478027,0
0.2628494689293126,4.166012525558472,0
0.2743254791844707,4.168697357177734,0
0.2728604565987058,4.171418190002441,0
0.2586985716029788,4.17414116859436,0
0.2682212184104504,4.176821708679199,0
0.259675253326822,4.179541110992432,0
0.259675253326822,4.182223796844482,0
0.2735929678915882,4.18501877784729,0
0.2699304114271761,4.18773889541626,0
0.2569893785862531,4.190422534942627,0
0.2665120253937247,4.193108797073364,0
0.2606519350506653,4.195866346359253,0
0.2594310828958612,4.198545932769775,0
0.2738371383225491,4.201222896575928,0
0.2716396044439018,4.20399808883667,0
0.2618727872054693,4.206723928451538,0
0.2655353436698815,4.2094128131866455,0
0.2618727872054693,4.212141513824463,0
0.259675253326822,4.214890718460083,0
0.2704187522890977,4.217589378356934,0
0.2684653888414112,4.220292329788208,0
0.2618727872054693,4.2229743003845215,0
0.2608961054816261,4.225727558135986,0
0.2591869124649004,4.228415250778198,0
0.2557685264314491,4.231092929840088,0
0.2655353436698815,4.233838081359863,0
0.2655353436698815,4.236522436141968,0
0.2608961054816261,4.23920488357544,0
0.2547918447076058,4.241923570632935,0
0.2601635941887437,4.24465537071228,0
0.2555243560004883,4.2473304271698,0
0.2616286167745085,4.250055313110352,0
0.2660236845318031,4.252728462219238,0
0.2660236845318031,4.255435228347778,0
0.2547918447076058,4.258152008056641,0
0.2640703210841166,4.260836362838745,0
0.2574777194481747,4.263510704040527,0
0.2604077646197045,4.266257286071777,0
0.2699304114271761,4.26893424987793,0
0.2679770479794896,4.2716100215911865,0
0.2538151629837626,4.274359941482544,0
0.2645586619460383,4.2770469188690186,0
0.2560126968624099,4.279721975326538,0
0.2567452081552923,4.282437801361084,0
0.2706629227200585,4.285150527954102,0
0.2694420705652545,4.287832260131836,0
0.2567452081552923,4.290554285049439,0
0.2657795141008423,4.2932288646698,0
0.2589427420339396,4.2959394454956055,0
0.2582102307410572,4.29866361618042,0
0.2704187522890977,4.301345109939575,0
0.2689537297033328,4.30406665802002,0
0.258454401172018,4.306792974472046,0
0.2618727872054693,4.309474229812622,0
0.2577218898791356,4.31215238571167,0
0.2557685264314491,4.3149144649505615,0
0.268709559272372,4.317601680755615,0
0.2665120253937247,4.320281505584717,0
0.2613844463435477,4.32300591468811,0
0.2618727872054693,4.325721740722656,0
0.2638261506531558,4.328408241271973,0
0.2586985716029788,4.331151008605957,0
0.2679770479794896,4.333874702453613,0
0.2679770479794896,4.3365631103515625,0
0.2633378097912342,4.339292526245117,0
0.2577218898791356,4.341976642608643,0
0.2618727872054693,4.344688892364502,0
0.2562568672933707,4.347411155700684,0
0.263581980222195,4.350093841552734,0
0.2677328775485288,4.3527748584747314,0
0.2652911732389207,4.35552978515625,0
0.2547918447076058,4.358214378356934,0
0.2633378097912342,4.360891342163086,0
0.2562568672933707,4.363613128662109,0
0.2579660603100964,4.366316795349121,0
0.2679770479794896,4.369000196456909,0
0.2657795141008423,4.371712684631348,0
0.2518617995360761,4.374425172805786,0
0.2626052984983518,4.37710976600647,0
0.2540593334147234,4.379832267761231,0
0.2540593334147234,4.382513523101807,0
0.2694420705652545,4.385226011276245,0
0.2660236845318031,4.387947082519531,0
0.2518617995360761,4.390635251998901,0
0.2633378097912342,4.393316030502319,0
0.2562568672933707,4.396082401275635,0
0.2543035038456842,4.398758411407471,0
0.2684653888414112,4.401443004608154,0
0.2660236845318031,4.404186248779297,0
0.2552801855695275,4.406874656677246,0
0.2599194237577829,4.409574270248413,0
0.2569893785862531,4.41227650642395,0
0.2538151629837626,4.414989709854126,0
0.2667561958246855,4.417710781097412,0
0.2645586619460383,4.420400381088257,0
0.2560126968624099,4.423079967498779,0
0.2577218898791356,4.4258294105529785,0
0.2589427420339396,4.428508281707764,0
0.2550360151385666,4.431183099746704,0
0.2657795141008423,4.433929443359375,0
0.2665120253937247,4.43660569190979,0
0.2618727872054693,4.439284086227417,0
0.2555243560004883,4.442004203796387,0
0.2606519350506653,4.444717884063721,0
0.2555243560004883,4.447401285171509,0
0.2608961054816261,4.450121641159058,0
0.2657795141008423,4.452797889709473,0
0.2630936393602734,4.45552921295166,0
0.2521059699670369,4.458249092102051,0
0.2618727872054693,4.460934162139893,0
0.254547674276645,4.463610887527466,0
0.259675253326822,4.466364860534668,0
0.2711512635819801,4.469044923782349,0
0.268709559272372,4.47172737121582,0
0.2547918447076058,4.474477291107178,0
0.267488707117568,4.477166414260864,0
0.2579660603100964,4.479844808578491,0
0.2591869124649004,4.482568264007568,0
0.276523013063118,4.485279321670532,0
0.2762788426321572,4.487961292266846,0
0.2643144915150774,4.490687131881714,0
0.2745696496154315,4.493368148803711,0
0.267488707117568,4.496084451675415,0
0.2645586619460383,4.498810052871704,0
0.2789647173727261,4.501488924026489,0
0.2755463313392747,4.5042009353637695,0
0.2645586619460383,4.506937980651856,0
0.2704187522890977,4.509621620178223,0
0.2657795141008423,4.512300252914429,0
0.2618727872054693,4.515059232711792,0
0.2750579904773531,4.517740964889526,0
0.2723721157367842,4.52042293548584,0
0.2640703210841166,4.523147344589233,0
0.2652911732389207,4.525864839553833,0
0.2638261506531558,4.528545618057251,0
0.2589427420339396,4.531262874603272,0
0.2696862409962153,4.533975124359131,0
0.2704187522890977,4.536656141281128,0
0.2643144915150774,4.539378643035889,0
0.2586985716029788,4.542061567306519,0
0.2638261506531558,4.54477334022522,0
0.2591869124649004,4.54749870300293,0
0.267488707117568,4.550214529037476,0
0.272616286167745,4.552908182144165,0
0.2694420705652545,4.555667877197266,0
0.2591869124649004,4.558351278305054,0
0.2691979001342937,4.561031818389893,0
0.2621169576364301,4.563760280609131,0
0.2672445366866072,4.566682815551758,0
0.2743254791844707,4.569371461868286,0
0.2716396044439018,4.572086811065674,0
0.2591869124649004,4.57482385635376,0
0.2694420705652545,4.577510118484497,0
0.2618727872054693,4.580229759216309,0
0.2640703210841166,4.582910060882568,0
0.2774996947869612,4.585654020309448,0
0.2753021609083139,4.588356256484985,0
0.2616286167745085,4.59104061126709,0
0.272616286167745,4.593762874603272,0
0.2638261506531558,4.596473693847656,0
0.2633378097912342,4.599160194396973,0
0.2799413990965693,4.601885080337524,0
0.2762788426321572,4.604602336883545,0
0.2621169576364301,4.607285499572754,0
0.2667561958246855,4.6100146770477295,0
0.2613844463435477,4.612694263458252,0
0.2586985716029788,4.6154091358184814,0
0.272616286167745,4.618135452270508,0
0.2709070931510193,4.620816230773926,0
0.2628494689293126,4.62350344657898,0
0.2684653888414112,4.626256465911865,0
0.2665120253937247,4.628936767578125,0
0.2621169576364301,4.631616115570068,0
0.2743254791844707,4.63437032699585,0
0.2723721157367842,4.637050628662109,0
0.2648028323769991,4.639730930328369,0
0.263581980222195,4.642455577850342,0
0.2638261506531558,4.645190000534058,0
0.2608961054816261,4.647872924804688,0
0.2696862409962153,4.650591611862183,0
0.2711512635819801,4.653275728225708,0
0.2672445366866072,4.6559929847717285,0
0.2611402759125869,4.658713340759277,0
0.2677328775485288,4.661392450332642,0
0.2628494689293126,4.6641576290130615,0
0.2716396044439018,4.666964054107666,0
0.2743254791844707,4.669647455215454,0
0.271395434012941,4.672323942184448,0
0.2608961054816261,4.675083160400391,0
0.2694420705652545,4.67776894569397,0
0.2626052984983518,4.68044638633728,0
0.2655353436698815,4.683171987533569,0
0.2755463313392747,4.685881614685059,0
0.2716396044439018,4.68856143951416,0
0.2577218898791356,4.691283702850342,0
0.2704187522890977,4.694021224975586,0
0.2626052984983518,4.6967058181762695,0
0.2655353436698815,4.699435710906982,0
0.2762788426321572,4.702114820480347,0
0.2745696496154315,4.704824686050415,0
0.2608961054816261,4.707557439804077,0
0.2704187522890977,4.710245609283447,0
0.2618727872054693,4.712923526763916,0
0.2626052984983518,4.715686798095703,0
0.2770113539250396,4.718372344970703,0
0.2743254791844707,4.721049547195435,0
0.2626052984983518,4.72376823425293,0
0.2694420705652545,4.726566553115845,0
0.263581980222195,4.729249954223633,0
0.2618727872054693,4.731981039047241,0
0.277743865217922,4.734696388244629,0
0.2750579904773531,4.737377643585205,0
0.267488707117568,4.740105867385864,0
0.2706629227200585,4.742790222167969,0
0.2677328775485288,4.7455034255981445,0
0.2648028323769991,4.748223304748535,0
0.2779880356488828,4.750900030136108,0
0.2774996947869612,4.753599166870117,0
0.272616286167745,4.756331920623779,0
0.2691979001342937,4.759013175964356,0
0.2701745818581369,4.761728286743164,0
0.2648028323769991,4.764441967010498,0
0.2750579904773531,4.767117977142334,0
0.2784763765108045,4.769845724105835,0
0.2750579904773531,4.772536516189575,0
0.2648028323769991,4.7752525806427,0
0.2738371383225491,4.777975559234619,0
0.267488707117568,4.780658006668091,0
0.2711512635819801,4.783341646194458,0
0.2784763765108045,4.786101818084717,0
0.2762788426321572,4.788785934448242,0
0.2626052984983518,4.791466474533081,0
0.2750579904773531,4.794211864471436,0
0.2672445366866072,4.796895265579224,0
0.268709559272372,4.799578905105591,0
0.2804297399584909,4.80229926109314,0
0.2774996947869612,4.805012702941895,0
0.2638261506531558,4.80769681930542,0
0.2718837748748626,4.810426712036133,0
0.2638261506531558,4.813115835189819,0
0.2621169576364301,4.81586217880249,0
0.2762788426321572,4.818589210510254,0
0.272616286167745,4.821271181106567,0
0.2599194237577829,4.823985576629639,0
0.2679770479794896,4.82670783996582,0
0.2618727872054693,4.829390048980713,0
0.2606519350506653,4.832067012786865,0
0.272616286167745,4.834824323654175,0
0.2706629227200585,4.837507486343384,0
0.2613844463435477,4.840194463729858,0
0.2645586619460383,4.842939615249634,0
0.2626052984983518,4.845652580261231,0
0.2608961054816261,4.848339557647705,0
0.276523013063118,4.851059198379517,0
0.2738371383225491,4.853743553161621,0
0.2665120253937247,4.8564558029174805,0
0.2648028323769991,4.859179973602295,0
0.2655353436698815,4.8618645668029785,0
0.2613844463435477,4.864583969116211,0
0.2718837748748626,4.867310285568237,0
0.2735929678915882,4.869992733001709,0
0.2716396044439018,4.8726842403411865,0
0.2633378097912342,4.875433206558228,0
0.2684653888414112,4.878115177154541,0
0.2626052984983518,4.880800247192383,0
0.2691979001342937,4.883524179458618,0
0.2757905017702355,4.88756537437439,0
0.2655353436698815,4.890300989151001,0
0.2696862409962153,4.892980575561523,0
0.267488707117568,4.895747661590576,0
0.2645586619460383,4.898752212524414,0
0.2774996947869612,4.901444435119629,0
0.2753021609083139,4.904162406921387,0
0.2655353436698815,4.907173156738281,0
0.2706629227200585,4.9098663330078125,0
0.2665120253937247,4.912555456161499,0
0.2638261506531558,4.915325880050659,0
0.276523013063118,4.91828727722168,0
0.2753021609083139,4.920979261398315,0
0.2643144915150774,4.923707723617554,0
0.2689537297033328,4.926424980163574,0
0.2648028323769991,4.929389953613281,0
0.2626052984983518,4.93211841583252,0
0.276523013063118,4.934859275817871,0
0.2750579904773531,4.937557697296143,0
0.2645586619460383,4.940531492233276,0
0.2694420705652545,4.94321870803833,0
0.2638261506531558,4.945982456207275,0
0.2613844463435477,4.948935508728027,0
0.2740813087535099,4.951624393463135,0
0.2718837748748626,4.9543845653533936,0
0.2608961054816261,4.957072734832764,0
0.2657795141008423,4.960034370422363,0
0.2613844463435477,4.962764501571655,0
0.2618727872054693,4.965567350387573,0
0.276523013063118,4.968262434005737,0
0.2753021609083139,4.971262693405151,0
0.2633378097912342,4.973989725112915,0
0.2704187522890977,4.976682662963867,0
0.2655353436698815,4.9794087409973145,0
0.2626052984983518,4.982356309890747,0
0.2753021609083139,4.985084295272827,0
0.2733487974606274,4.987816572189331,0
0.2618727872054693,4.990775108337402,0
0.2694420705652545,4.993464708328247,0
0.2621169576364301,4.996222734451294,0
0.263581980222195,4.998912572860718,0
0.2770113539250396,5.001909255981445,0
0.2753021609083139,5.00463604927063,0
0.2626052984983518,5.007321357727051,0
0.2667561958246855,5.010060548782349,0
0.2589427420339396,5.013021469116211,0
0.2560126968624099,5.0157530307769775,0
0.2689537297033328,5.018482208251953,0
0.2667561958246855,5.021230697631836,0
0.2543035038456842,5.024148464202881,0
0.2621169576364301,5.026877880096436,0
0.2540593334147234,5.02956485748291,0
0.2503967769503112,5.032520294189453,0
0.2655353436698815,5.0352888107299805,0
0.2648028323769991,5.037982702255249,0
0.2530826516908802,5.040673971176148,0
0.2616286167745085,5.043678522109985,0
0.2547918447076058,5.046398878097534,0
0.2560126968624099,5.04907488822937,0
0.2706629227200585,5.051797389984131,0
0.2696862409962153,5.054816484451294,0
0.2562568672933707,5.0575032234191895,0
0.2655353436698815,5.060229778289795,0
0.2577218898791356,5.062983512878418,0
0.2608961054816261,5.065937519073486,0
0.272616286167745,5.068626403808594,0
0.2738371383225491,5.0713050365448,0
0.2643144915150774,5.074302673339844,0
0.2723721157367842,5.077003479003906,0
0.2640703210841166,5.079690217971802,0
0.2626052984983518,5.082412242889404,0
0.2767671834940788,5.085404872894287,0
0.2743254791844707,5.088099718093872,0
0.2608961054816261,5.09083104133606,0
0.2694420705652545,5.093513488769531,0
0.2621169576364301,5.096510171890259,0
0.2626052984983518,5.099261283874512,0
0.276523013063118,5.101954221725464,0
0.2733487974606274,5.104743003845215,0
0.2577218898791356,5.107667684555054,0
0.2679770479794896,5.110363721847534,0
0.2618727872054693,5.113054037094116,0
0.2645586619460383,5.116103887557983,0
0.2860456598705896,5.1188013553619385,0
0.2836039555609815,5.121489524841309,0
0.272616286167745,5.124248504638672,0
0.2850689781467463,5.127216815948486,0
0.2770113539250396,5.129950284957886,0
0.2743254791844707,5.132643461227417,0
0.2862898303015504,5.135363578796387,0
0.2796972286656085,5.138366937637329,0
0.2640703210841166,5.141061305999756,0
0.2753021609083139,5.143751621246338,0
0.268709559272372,5.146796703338623,0
0.2672445366866072,5.149493932723999,0
0.2806739103894518,5.1521875858306885,0
0.2789647173727261,5.154948949813843,0
0.2667561958246855,5.15790581703186,0
0.2804297399584909,5.160602807998657,0
0.2735929678915882,5.163331508636475,0
0.2762788426321572,5.166058301925659,2
0.2999633744353558,5.1690216064453125,2
0.2950799658161396,5.171748161315918,2
0.2821389329752166,5.174483060836792,2
0.2923940910755707,5.17716908454895,2
0.2811622512513734,5.180176258087158,2
0.2804297399584909,5.182866334915161,2
0.2926382615065315,5.185607671737671,2
0.2831156146990599,5.188583135604858,2
0.2843364668538639,5.191280126571655,2
0.290684898058845,5.194048643112183,2
0.2848248077157855,5.196746587753296,2
0.2691979001342937,5.199705362319946,2
0.2733487974606274,5.202443599700928,2
0.2733487974606274,5.2051682472229,2
0.259675253326822,5.207856893539429,2
0.268709559272372,5.210911989212036,2
0.2606519350506653,5.21360969543457,2
0.2613844463435477,5.216331958770752,2
0.2745696496154315,5.219055891036987,2
0.2704187522890977,5.222019195556641,2
0.2552801855695275,5.2247395515441895,2
0.2662678549627639,5.227466821670532,2
0.259675253326822,5.230422735214233,2
0.2665120253937247,5.233116388320923,2
0.2794530582346477,5.235872745513916,2
0.2738371383225491,5.238560914993286,2
0.2613844463435477,5.241522073745728,2
0.2843364668538639,5.244277238845825,2
0.277743865217922,5.246966600418091,2
0.2755463313392747,5.249720096588135,2
0.2967891588328653,5.252694845199585,2
0.286778171163472,5.255420684814453,2
0.2731046270296666,5.258149147033691,2
0.2931266023684531,5.260830879211426,2
0.2889757050421193,5.2637903690338135,2
0.2948357953851788,5.266551017761231,2
0.3028934196068855,5.269233226776123,2
0.3089976803809058,5.272190809249878,2
0.3011842265901598,5.274957656860352,2
0.3058234647784152,5.277643442153931,2
0.3028934196068855,5.280329704284668,2
0.3172994750335733,5.283320903778076,2
0.3356122573556341,5.286043405532837,2
0.3402514955438895,5.288738012313843,2
0.3458674154559882,5.2914628982543945,2
0.3663777316566963,5.29448127746582,2
0.3539250396776949,5.297175407409668,2
0.3446465633011841,5.29989767074585,2
0.3546575509705774,5.30258584022522,2
0.3505066536442436,5.305596828460693,2
0.3365889390794774,5.308305740356445,2
0.3404956659748503,5.310994625091553,2
0.3312171895983395,5.314024209976196,2
0.3414723476986936,5.316714525222778,2
0.3514833353680868,5.319401025772095,2
0.3419606885606152,5.322126150131226,2
0.3343914052008301,5.325115203857422,2
0.3292638261506531,5.327803373336792,2
0.3194970089122206,5.3305323123931885,2
0.3107068733976315,5.333215951919556,2
0.3065559760712977,5.336210250854492,2
0.3089976803809058,5.33893632888794,2
0.2967891588328653,5.34162187576294,2
0.3185203271883774,5.344342231750488,2
0.3168111341716517,5.347339868545532,2
0.3317055304602612,5.350033283233643,2
0.3444023928702233,5.352715730667114,2
0.3439140520083017,5.355761289596558,2
0.3375656208033206,5.358453750610352,2
0.3519716762300084,5.361134767532349,2
0.3407398364058112,5.36388635635376,2
0.3407398364058112,5.366854429244995,2
0.3492858014894395,5.369563579559326,2
0.3402514955438895,5.372269630432129,2
0.3414723476986936,5.374990940093994,2
0.3309730191673787,5.377989292144775,2
0.3202295202051031,5.380683660507202,2
0.309974362104749,5.383368968963623,2
0.3155902820168477,5.386124134063721,2
0.3143694298620436,5.389084815979004,2
0.3160786228787693,5.39177131652832,2
0.3263337809791233,5.39454460144043,2
0.3329263826150652,5.397510766983032,2
0.3439140520083017,5.400191307067871,2
0.3429373702844585,5.402918338775635,2
0.3329263826150652,5.4056360721588135,2
0.3234037358075936,5.408597230911255,2
0.3407398364058112,5.411331415176392,2
0.3353680869246733,5.414087533950806,2
0.3273104627029666,5.416775941848755,2
0.3387864729581247,5.419787645339966,2
0.3351239164937125,5.422467947006226,2
0.3251129288243193,5.425189733505249,2
0.3219387132218287,5.427916765213013,2
0.3155902820168477,5.430866718292236,2
0.3121718959833963,5.43357253074646,2
0.3182761567574166,5.436314344406128,2
0.3141252594310828,5.439267873764038,2
0.3163227933097301,5.441993951797485,2
0.3326822121841044,5.4447126388549805,2
0.3275546331339274,5.4474029541015625,2
0.3378097912342814,5.450406551361084,2
0.3468440971798314,5.453096628189087,2
0.3419606885606152,5.455814123153687,2
0.3299963374435355,5.458545923233032,2
0.3412281772677328,5.461502552032471,2
0.3497741423513612,5.464222431182861,2
0.3666219020876571,5.466952800750732,2
0.3656452203638138,5.469645261764526,2
0.3712611402759125,5.47260332107544,2
0.3566109144182638,5.475367307662964,2
0.347332438041753,5.478051900863648,2
0.3397631546819679,5.481014966964722,2
0.331949700891222,5.483745336532593,2
0.3243804175314368,5.486468076705933,2
0.3199853497741423,5.489153146743774,2
0.3165669637406909,5.492144823074341,2
0.3236479062385544,5.4948694705963135,2
0.3136369185691612,5.497568845748901,2
0.3236479062385544,5.500272035598755,2
0.3465999267488706,5.503232955932617,2
0.3487974606275179,5.505991458892822,2
0.346111585886949,5.508680582046509,2
0.3475766084727139,5.511372804641724,2
0.3544133805396166,5.514420986175537,2
0.3636918569161274,5.517114639282227,2
0.3629593456232449,5.51979923248291,2
0.3712611402759125,5.522794485092163,2
0.360273470882676,5.525527000427246,2
0.3595409595897936,5.528212070465088,2
0.355145891832499,5.530940294265747,2
0.3556342326944206,5.534750938415527,2
0.3610059821755584,5.537458896636963,2
0.355145891832499,5.540194034576416,2
0.365401049932853,5.542885065078735,2
0.364180197778049,5.545624732971191,2
0.360273470882676,5.548332929611206,2
0.365401049932853,5.551018238067627,2
0.3768770601880111,5.553737640380859,2
0.3907947747527773,5.556444883346558,2
0.4081308753509949,5.5591418743133545,2
0.4398730313759003,5.561866998672485,2
0.4423147356855084,5.564584970474243,2
0.4327920888780368,5.567275762557983,2
0.4357221340495665,5.569996356964111,2
0.4237577829324868,5.572679996490479,2
0.4183860334513489,5.575397253036499,2
0.4366988157734097,5.578131437301636,2
0.428641191551703,5.580822706222534,2
0.4227811012086435,5.583507061004639,2
0.4174093517275057,5.586265325546265,2
0.4044683188865827,5.588949680328369,2
0.3915272860456598,5.591639518737793,2
0.3910389451837381,5.5943922996521,2
0.3793187644976192,5.597078561782837,2
0.3624710047613233,5.599756956100464,2
0.3668660725186179,5.602512836456299,2
0.3595409595897936,5.605432510375977,2
0.3429373702844585,5.608126401901245,2
0.3380539616652422,5.610872745513916,2
0.3495299719204003,5.613564491271973,2
0.3426931998534976,5.616290330886841,2
0.3363447686485166,5.61901593208313,2
0.326822121841045,5.621701002120972,2
0.3107068733976315,5.624413251876831,2
0.3321938713221828,5.627135753631592,2
0.3324380417531436,5.6298229694366455,2
0.3224270540837504,5.632504463195801,2
0.3368331095104382,5.635261535644531,2
0.3326822121841044,5.637943983078003,2
0.322915394945672,5.640624284744263,2
0.3292638261506531,5.643346071243286,2
0.3246245879623977,5.646081209182739,2
0.328042973995849,5.648772954940796,2
0.3439140520083017,5.651494264602661,2
0.3407398364058112,5.654223442077637,2
0.3382981320962031,5.656905651092529,2
0.3429373702844585,5.659626245498657,2
0.3382981320962031,5.6623077392578125,2
0.3273104627029666,5.66506814956665,2
0.3361005982175558,5.667869806289673,2
0.3414723476986936,5.670551061630249,2
0.3270662922720058,5.673236131668091,2
0.3270662922720058,5.675997257232666,2
0.3202295202051031,5.678682804107666,2
0.3109510438285923,5.681363344192505,2
0.3094860212428274,5.684118270874023,2
0.304846783054572,5.686801433563232,2
0.3058234647784152,5.689486265182495,2
0.2933707727994139,5.692211389541626,2
0.2928824319374923,5.694939851760864,2
0.295812477109022,5.697643995285034,2
0.2931266023684531,5.700348615646362,2
0.3065559760712977,5.703024625778198,2
0.2987425222805517,5.7057764530181885,2
0.2840922964229031,5.708456039428711,2
0.2862898303015504,5.7111427783966064,2
0.2789647173727261,5.713969945907593,2
0.2814064216823342,5.716689348220825,2
0.2843364668538639,5.719369173049927,2
0.2801855695275301,5.722103118896484,2
0.2709070931510193,5.72482442855835,2
0.2760346722011964,5.727503776550293,2
0.2745696496154315,5.730226278305054,2
0.3068001465022585,5.732911348342896,2
0.3107068733976315,5.73561692237854,2
0.3265779514100841,5.738344430923462,2
0.3290196557196922,5.741026878356934,2
0.3304846783054571,5.743709087371826,2
0.322915394945672,5.7464587688446045,2
0.3085093395189842,5.7491514682769775,2
0.3141252594310828,5.751823902130127,2
0.309974362104749,5.7545812129974365,2
0.2999633744353558,5.757265329360962,2
0.3038701013307288,5.759946346282959,2
0.3006958857282382,5.762666702270508,2
0.2960566475399828,5.765384435653687,2
0.2987425222805517,5.768067836761475,2
0.2970333292638261,5.7707836627960205,2
0.2926382615065315,5.773467779159546,2
0.2899523867659626,5.77620267868042,2
0.2923940910755707,5.778927326202393,2
0.2887315346111585,5.781611442565918,2
0.294591624954218,5.7843334674835205,2
0.2948357953851788,5.787054538726807,2
0.2848248077157855,5.789732933044434,2
0.2750579904773531,5.79241943359375,2
0.2762788426321572,5.795175790786743,2
0.2926382615065315,5.797860860824585,2
0.2950799658161396,5.800536394119263,2
0.2953241362471004,5.803260326385498,2
0.3070443169332193,5.80597448348999,2
0.295812477109022,5.808665990829468,2
0.2950799658161396,5.8113789558410645,2
0.2892198754730801,5.814098119735718,2
0.2831156146990599,5.816792249679565,2
0.2833597851300207,5.81951117515564,2
0.2794530582346477,5.822193622589111,2
0.2679770479794896,5.824906349182129,2
0.272616286167745,5.82762598991394,2
0.2650470028079599,5.830315113067627,2
0.268709559272372,5.832995653152466,2
0.276523013063118,5.835746049880981,2
0.2858014894396288,5.838423252105713,2
0.281650592113295,5.841101169586182,2
0.2809180808204126,5.843852996826172,2
0.2704187522890977,5.846535682678223,2
0.259675253326822,5.849219799041748,2
0.2665120253937247,5.8519463539123535,2
0.2665120253937247,5.854659557342529,2
0.2577218898791356,5.857336044311523,2
0.2577218898791356,5.860057830810547,2
0.2508851178122329,5.862738847732544,2
0.2518617995360761,5.865467309951782,2
0.2716396044439018,5.868184566497803,2
0.272616286167745,5.870864152908325,2
0.2701745818581369,5.873569250106812,2
0.2709070931510193,5.876302242279053,2
0.2755463313392747,5.878982305526733,2
0.2691979001342937,5.8816978931427,2
0.2809180808204126,5.884419918060303,2
0.2882431937492369,5.887102365493774,2
0.2774996947869612,5.889826059341431,2
0.268709559272372,5.892502546310425,2
0.2682212184104504,5.895247459411621,2
0.2594310828958612,5.897966146469116,2
0.2567452081552923,5.900651693344116,2
0.2535709925528018,5.903333902359009,2
0.2521059699670369,5.906082630157471,2
0.2418508118666829,5.908772230148315,2
0.2560126968624099,5.911452293395996,2
0.2518617995360761,5.914222717285156,2
0.2538151629837626,5.916907548904419,2
0.2618727872054693,5.919580698013306,2
0.2555243560004883,5.922303915023804,2
0.2440483457453302,5.925110340118408,2
0.2655353436698815,5.927793979644775,2
0.2601635941887437,5.930513143539429,2
0.2508851178122329,5.933197498321533,2
0.2633378097912342,5.935906887054443,2
0.2569893785862531,5.938632965087891,2
0.2425833231595653,5.941316604614258,2
0.2516176291051153,5.944035768508911,2
0.2508851178122329,5.946812391281128,2
0.2801855695275301,5.949502944946289,2
0.2977658405567085,5.952182769775391,2
0.3163227933097301,5.954934597015381,2
0.3243804175314368,5.9576191902160645,2
0.3299963374435355,5.960300445556641,2
0.3221828836527896,5.963024854660034,2
0.3304846783054571,5.965740203857422,2
0.3429373702844585,5.968430757522583,2
0.3441582224392625,5.971151113510132,2
0.3439140520083017,5.973864316940308,2
0.3534366988157733,5.976547956466675,2
0.3617384934684409,5.979273557662964,2
0.3529483579538517,5.981961250305176,2
0.3712611402759125,5.984678268432617,2
0.3768770601880111,5.987393856048584,2
0.3610059821755584,5.990072011947632,2
0.3634476864851665,5.992751598358154,2
0.3780979123428152,5.995501756668091,2
0.3734586741545598,5.99819016456604,2
0.369307776828226,6.00087308883667,2
0.3683310951043828,6.003601789474487,2
0.3656452203638138,6.006318807601929,2
0.3612501526065192,6.00900411605835,2
0.3690636063972652,6.011734008789063,2
0.3558784031253814,6.01447868347168,2
0.3612501526065192,6.017172336578369,2
0.3790745940666584,6.019903182983398,2
0.3688194359663044,6.022594690322876,2
0.3585642778659503,6.025315046310425,2
0.3910389451837381,6.028043746948242,2
0.3820046392381881,6.030725955963135,2
0.3785862532047368,6.033408164978027,2
0.3944573312171895,6.036159038543701,2
0.3905506043218165,6.038849592208862,2
0.3759003784641679,6.041548490524292,2
0.3800512757905017,6.044281721115112,2
0.3683310951043828,6.046969413757324,2
0.3771212306189719,6.04969048500061,2
0.3876205591502868,6.052377939224243,2
0.3790745940666584,6.055092811584473,2
0.365401049932853,6.057814359664917,2
0.3671102429495787,6.060507774353027,2
0.3570992552801855,6.063194990158081,2
0.3475766084727139,6.065948009490967,2
0.3519716762300084,6.068636417388916,2
0.3495299719204003,6.07131814956665,2
0.3429373702844585,6.074076414108276,2
0.3448907337321449,6.076762914657593,2
0.3419606885606152,6.079445838928223,2
0.365401049932853,6.082169532775879,2
0.3888414113050908,6.084888935089111,2
0.3905506043218165,6.08757758140564,2
0.405445000610426,6.090301752090454,2
0.4073983640581124,6.092985153198242,2
0.4093517275057989,6.0957019329071045,2
0.4012941032840922,6.098425626754761,2
0.4093517275057989,6.101107835769653,2
0.4032474667317787,6.103787899017334,2
0.3956781833719935,6.106541633605957,2
0.3876205591502868,6.109227418899536,2
0.3844463435477963,6.111903190612793,2
0.3715053107068733,6.114665746688843,2
0.3651568795018922,6.11735725402832,2
0.3668660725186179,6.120041370391846,2
0.3597851300207544,6.122786283493042,2
0.3556342326944206,6.125502347946167,2
0.3475766084727139,6.128187894821167,2
0.3356122573556341,6.13090705871582,2
0.3243804175314368,6.133585691452026,2
0.3297521670125747,6.136314630508423,2
0.3260896105481625,6.1390380859375,2
0.3116835551214747,6.141718149185181,2
0.331949700891222,6.14444375038147,2
0.3224270540837504,6.14717173576355,2
0.3094860212428274,6.149859189987183,2
0.3216945427908679,6.152539253234863,2
0.3126602368453179,6.155290365219116,2
0.2989866927115125,6.157974720001221,2
0.3089976803809058,6.160658121109009,2
0.3046026126236112,6.163389205932617,2
0.2967891588328653,6.166111469268799,2
0.308753509949945,6.168795347213745,2
0.3043584421926504,6.171518325805664,2
0.291905750213649,6.174231767654419,2
0.2914174093517274,6.176916360855103,2
0.2843364668538639,6.179635524749756,2
0.291905750213649,6.1823248863220215,2
0.2950799658161396,6.185039520263672,2
0.2909290684898058,6.187766075134277,2
0.2848248077157855,6.190447807312012,2
0.2977658405567085,6.19313907623291,2
0.3194970089122206,6.195899963378906,2
0.3143694298620436,6.198588848114014,2
0.324136247100476,6.201279163360596,2
0.3226712245147112,6.204031467437744,2
0.3212062019289463,6.206719875335693,2
0.3163227933097301,6.209397315979004,2
0.3185203271883774,6.212112665176392,2
0.319008668050299,6.214828014373779,2
0.3334147234769868,6.217543363571167,2
0.3363447686485166,6.220251798629761,2
0.3375656208033206,6.222936391830444,2
0.3263337809791233,6.22569465637207,2
0.3317055304602612,6.228383302688599,2
0.3199853497741423,6.23106861114502,2
0.3155902820168477,6.233782768249512,2
0.3253570992552801,6.236498117446899,2
0.3238920766695152,6.239182233810425,2
0.3089976803809058,6.24190354347229,2
0.3109510438285923,6.244622230529785,2
0.3187644976193382,6.247306346893311,2
0.3353680869246733,6.250028133392334,2
0.331949700891222,6.252719163894653,2
0.3400073251129287,6.255457162857056,2
0.3304846783054571,6.258185148239136,2
0.3302405078744963,6.260859966278076,2
0.3204736906360639,6.2635416984558105,2
0.3163227933097301,6.266301155090332,2
0.3155902820168477,6.268985748291016,2
0.3136369185691612,6.271664142608643,2
0.3026492491759247,6.274416923522949,2
0.3082651690880233,6.277101039886475,2
0.300940056159199,6.279776334762573,2
0.304846783054572,6.282492876052856,2
0.3155902820168477,6.285207033157349,2
0.3199853497741423,6.287887811660767,2
0.3236479062385544,6.29064154624939,2
0.3221828836527896,6.293328523635864,2
0.3155902820168477,6.296040058135986,2
0.3104627029666706,6.298762559890747,2
0.3204736906360639,6.301438808441162,2
0.3202295202051031,6.304153919219971,2
0.3124160664143571,6.306879758834839,2
0.3055792943474544,6.309561491012573,2
0.3041142717616896,6.312243938446045,2
0.3016725674520815,6.314996719360352,2
0.3107068733976315,6.317691087722778,2
0.3107068733976315,6.320375680923462,2
0.3107068733976315,6.323110342025757,2
0.3077768282261017,6.325852632522583,2
0.3168111341716517,6.328536510467529,2
0.3119277255524355,6.331261157989502,2
0.3231595653766328,6.333977699279785,2
0.331949700891222,6.33665919303894,2
0.328042973995849,6.339385986328125,2
0.3194970089122206,6.342062473297119,2
0.3375656208033206,6.344779968261719,2
0.3285313148577706,6.347499132156372,2
0.3348797460627517,6.350181341171265,2
0.3595409595897936,6.3528594970703125,2
0.3524600170919301,6.355615139007568,2
0.3507508240752044,6.358300447463989,2
0.3629593456232449,6.3609840869903564,2
0.3534366988157733,6.363713026046753,2
0.3458674154559882,6.366423845291138,2
0.3610059821755584,6.369099378585815,2
0.3585642778659503,6.371825695037842,2
0.3544133805396166,6.374560356140137,2
0.3634476864851665,6.377238750457764,2
0.355145891832499,6.37998104095459,2
0.3517275057990476,6.382662534713745,2
0.3629593456232449,6.3853843212127686,2
0.3568550848492247,6.388100862503052,2
0.3424490294225368,6.3907859325408936,2
0.3417165181296544,6.393469572067261,2
0.337077279941399,6.396234750747681,2
0.3312171895983395,6.398925542831421,2
0.3407398364058112,6.401633739471436,2
0.3365889390794774,6.404363393783569,2
0.3277988035648882,6.407047510147095,2
0.3234037358075936,6.4097747802734375,2
0.3270662922720058,6.412461996078491,2
0.3214503723599071,6.415171384811401,2
0.3265779514100841,6.417906999588013,2
0.3251129288243193,6.420593976974487,2
0.3199853497741423,6.423275232315064,2
0.3094860212428274,6.42603325843811,2
0.3085093395189842,6.428716421127319,2
0.3028934196068855,6.431397914886475,2
0.3004517152972774,6.434147834777832,2
0.3077768282261017,6.436835527420044,2
0.3021609083140031,6.439523458480835,2
0.2889757050421193,6.442251443862915,2
0.2970333292638261,6.444961309432983,2
0.2870223415944328,6.447919130325317,2
0.2821389329752166,6.451210498809815,2
0.2931266023684531,6.454959869384766,2
0.2897082163350017,6.458073377609253,2
0.2948357953851788,6.46085000038147,2
0.2858014894396288,6.463763475418091,2
0.2794530582346477,6.467039108276367,2
0.2843364668538639,6.470011472702026,2
0.2831156146990599,6.472754955291748,2
0.2735929678915882,6.47589921951294,2
0.2833597851300207,6.478883743286133,2
0.2762788426321572,6.481952428817749,2
0.2858014894396288,6.48506236076355,2
0.2850689781467463,6.488127946853638,2
0.2723721157367842,6.4913647174835205,2
0.2818947625442558,6.494564771652222,2
0.2733487974606274,6.497723340988159,2
0.2782322060798436,6.500805139541626,2
0.2836039555609815,6.503933191299439,2
0.2792088878036869,6.5071210861206055,2
0.2755463313392747,6.510106086730957,2
0.277743865217922,6.5131425857543945,2
0.2723721157367842,6.516345262527466,2
0.2887315346111585,6.519160032272339,2
0.2848248077157855,6.522263765335083,2
0.2716396044439018,6.525275707244873,2
0.2823831034061774,6.528318881988525,2
0.2770113539250396,6.531232595443726,2
0.2843364668538639,6.5340681076049805,2
0.2892198754730801,6.537212371826172,2
0.2836039555609815,6.540355205535889,2
0.2811622512513734,6.5431976318359375,2
0.2836039555609815,6.546170711517334,2
0.2809180808204126,6.5490686893463135,2
0.295812477109022,6.552072286605835,2
0.2965449884019044,6.55524754524231,2
0.2850689781467463,6.558302879333496,2
0.2899523867659626,6.561392307281494,2
0.2804297399584909,6.565992832183838,2
0.2999633744353558,6.569288730621338,2
0.2987425222805517,6.572476625442505,2
0.2845806372848247,6.575927257537842,2
0.294591624954218,6.579112529754639,2
0.2872665120253936,6.582058668136597,2
0.291905750213649,6.585693597793579,2
0.2928824319374923,6.588769674301148,2
0.2782322060798436,6.591635465621948,2
0.285557319008668,6.595097541809082,2
0.276523013063118,6.597951889038086,2
0.2804297399584909,6.600888013839722,2
0.2860456598705896,6.604498624801636,2
0.2794530582346477,6.607306718826294,2
0.2792088878036869,6.610101222991943,2
0.2794530582346477,6.613237857818604,2
0.2755463313392747,6.616860389709473,2
0.2901965571969234,6.61971926689148,2
0.2882431937492369,6.622460126876831,2
0.272616286167745,6.625956773757935,2
0.2794530582346477,6.629061698913574,2
0.272616286167745,6.631942987442017,2
0.2831156146990599,6.63552451133728,2
0.2850689781467463,6.63866662979126,2
0.272616286167745,6.641806364059448,2
0.2814064216823342,6.645548343658447,2
0.2738371383225491,6.648619413375855,2
0.2840922964229031,6.651733636856079,2
0.2843364668538639,6.655215501785278,2
0.2735929678915882,6.658323287963867,2
0.2804297399584909,6.6612749099731445,2
0.272616286167745,6.664870262145996,2
0.281650592113295,6.667967081069946,2
0.2843364668538639,6.670758008956909,2
0.2801855695275301,6.6739373207092285,2
0.2804297399584909,6.677174806594849,2
0.2774996947869612,6.680287599563599,2
0.2753021609083139,6.683238744735718,2
0.2901965571969234,6.686411142349243,2
0.2860456598705896,6.689610004425049,2
0.2699304114271761,6.692641019821167,2
0.2796972286656085,6.696033000946045,2
0.2760346722011964,6.69882082939148,2
0.2909290684898058,6.701708793640137,2
0.2909290684898058,6.705172538757324,2
0.2811622512513734,6.708272695541382,2
0.290684898058845,6.711313009262085,2
0.2814064216823342,6.714856863021851,2
0.2892198754730801,6.718000888824463,2
0.2931266023684531,6.720935344696045,2
0.2877548528873153,6.724568128585815,2
0.2901965571969234,6.727706909179688,2
0.2831156146990599,6.730826377868652,2
0.2831156146990599,6.734118938446045,2
0.294591624954218,6.737196683883667,2
0.2901965571969234,6.7404210567474365,2
0.2853131485777072,6.743550539016724,2
0.2853131485777072,6.746848583221436,2
0.2833597851300207,6.749867916107178,2
0.2977658405567085,6.752681016921997,2
0.2921499206446099,6.755942344665527,2
0.2762788426321572,6.758655548095703,2
0.2872665120253936,6.761338233947754,2
0.2792088878036869,6.764375925064087,2
0.2782322060798436,6.767062425613403,2
0.2904407276278842,6.769779920578003,2
0.2875106824563544,6.772463083267212,2
0.2733487974606274,6.7754645347595215,2
0.2814064216823342,6.778188467025757,2
0.2735929678915882,6.7808709144592285,2
0.2738371383225491,6.783551454544067,2
0.2872665120253936,6.786566019058228,2
0.2840922964229031,6.789256811141968,2
0.2691979001342937,6.791934490203857,2
0.2789647173727261,6.7949724197387695,2
0.2696862409962153,6.797656536102295,2
0.2699304114271761,6.800338745117188,2
0.2831156146990599,6.803064584732056,2
0.2796972286656085,6.806070327758789,2
0.2652911732389207,6.808756589889526,2
0.2718837748748626,6.811471700668335,2
0.2638261506531558,6.814448118209839,2
0.2613844463435477,6.8171350955963135,2
0.271395434012941,6.819862365722656,2
0.2694420705652545,6.822548866271973,2
0.2550360151385666,6.825567007064819,2
0.2643144915150774,6.828270435333252,2
0.2565010377243315,6.830948829650879,2
0.2523501403979977,6.833668231964111,2
0.263581980222195,6.836668014526367,2
0.2626052984983518,6.839357137680054,2
0.2481992430716639,6.842080354690552,2
0.259675253326822,6.8450682163238525,2
0.2508851178122329,6.847753286361694,2
0.2530826516908802,6.850471019744873,2
0.2670003662556464,6.853151082992554,2
0.2643144915150774,6.856169939041138,2
0.2503967769503112,6.858899831771851,2
0.2618727872054693,6.8615803718566895,2
0.2543035038456842,6.864293575286865,2
0.2560126968624099,6.867281913757324,2
0.2667561958246855,6.869963884353638,2
0.2657795141008423,6.8726487159729,0
0.2513734586741545,6.875664234161377,0
0.2628494689293126,6.878345251083374,0
0.2555243560004883,6.881033658981323,0
0.2569893785862531,6.883758068084717,0
0.2696862409962153,6.886741876602173,0
0.2672445366866072,6.889444589614868,0
0.2530826516908802,6.892165899276733,0
0.2621169576364301,6.89490270614624,0
0.2543035038456842,6.897907733917236,0
0.2562568672933707,6.900595426559448,0
0.2665120253937247,6.903278350830078,0
0.2672445366866072,6.90603232383728,0
0.2530826516908802,6.908984422683716,0
0.2650470028079599,6.911673545837402,0
0.2577218898791356,6.914425373077393,0
0.2618727872054693,6.917376279830933,0
0.2723721157367842,6.920074701309204,0
0.2716396044439018,6.92280650138855,0
0.2569893785862531,6.925523519515991,0
0.2694420705652545,6.928491353988648,0
0.2611402759125869,6.931218385696411,0
0.2633378097912342,6.933934450149536,0
0.2753021609083139,6.93661642074585,0
0.272616286167745,6.939588785171509,0
0.2579660603100964,6.942273139953613,0
0.2691979001342937,6.944998264312744,0
0.2608961054816261,6.947718620300293,0
0.2633378097912342,6.950680494308472,0
0.2738371383225491,6.953359842300415,0
0.2716396044439018,6.956120491027832,0
0.2579660603100964,6.959066867828369,0
0.2677328775485288,6.961794376373291,0
0.2599194237577829,6.9646155834198,0
0.2606519350506653,6.967302083969116,0
0.2718837748748626,6.970296859741211,0
0.2691979001342937,6.972985744476318,0
0.2547918447076058,6.97572135925293,0
0.2665120253937247,6.978442192077637,0
0.2579660603100964,6.981387615203857,0
0.2638261506531558,6.984104633331299,0
0.272616286167745,6.9868268966674805,0
0.2699304114271761,6.989510774612427,0
0.2565010377243315,6.992465496063232,0
0.2704187522890977,6.995224714279175,0
0.2633378097912342,6.997909784317017,0
0.2655353436698815,7.0008704662323,0
0.2735929678915882,7.003590822219849,0
0.272616286167745,7.006310939788818,0
0.2589427420339396,7.00898814201355,0
0.2706629227200585,7.011984825134277,0
0.2618727872054693,7.014702796936035,0
0.2630936393602734,7.0173845291137695,0
0.2733487974606274,7.0201029777526855,0
0.2704187522890977,7.023082971572876,0
0.2567452081552923,7.025858879089356,0
0.267488707117568,7.028578996658325,0
0.2608961054816261,7.0313401222229,0
0.2640703210841166,7.034303665161133,0
0.2738371383225491,7.036994457244873,0
0.272616286167745,7.039688348770142,0
0.259675253326822,7.042680978775024,0
0.2694420705652545,7.045408487319946,0
0.2628494689293126,7.048094034194946,0
0.2645586619460383,7.050827264785767,0
0.2750579904773531,7.053783178329468,0
0.2706629227200585,7.056502103805542,0
0.2579660603100964,7.059226036071777,0
0.2691979001342937,7.06191349029541,0
0.2618727872054693,7.064911603927612,0
0.2660236845318031,7.067643880844116,0
0.2748138200463923,7.070327281951904,0
0.2743254791844707,7.073086738586426,0
0.2599194237577829,7.074966669082642,0
0.2679770479794896,7.07631254196167,0
0.2721279453058234,7.077656984329224,0
0.2696862409962153,7.078998327255249,0
0.2648028323769991,7.080343961715698,0
0.2638261506531558,7.081707715988159,0
0.2638261506531558,7.083052158355713,0
0.2745696496154315,7.08455491065979,0
0.2753021609083139,7.08590030670166,0
0.2735929678915882,7.087242841720581,0
0.2772555243560004,7.0885865688323975,0
0.2694420705652545,7.0899505615234375,0
0.2616286167745085,7.0913002490997314,0
0.2665120253937247,7.092649459838867,0
0.2733487974606274,7.094160079956055,0
0.2691979001342937,7.095508337020874,0
0.2660236845318031,7.0968523025512695,0
0.2682212184104504,7.098216772079468,0
0.2679770479794896,7.099556922912598,0
0.2743254791844707,7.100898027420044,0
0.2814064216823342,7.102238416671753,0
0.276523013063118,7.10357928276062,0
0.2799413990965693,7.105083703994751,0
0.2733487974606274,7.106452703475952,0
0.2655353436698815,7.107797861099243,0
0.267488707117568,7.109140396118164,0
0.2753021609083139,7.110482692718506,0
0.2728604565987058,7.111826419830322,0
0.268709559272372,7.113165378570557,0
0.2660236845318031,7.114690065383911,0
0.2665120253937247,7.116035461425781,0
0.2745696496154315,7.1173789501190186,0
0.2801855695275301,7.1187238693237305,0
0.2772555243560004,7.120068073272705,0
0.2794530582346477,7.121418237686157,0
0.2753021609083139,7.12279486656189,0
0.267488707117568,7.124161005020142,0
0.2657795141008423,7.125653028488159,0
0.2745696496154315,7.127001762390137,0
0.2731046270296666,7.128347158432007,0
0.2689537297033328,7.129709243774414,0
0.2677328775485288,7.131052494049072,0
0.2677328775485288,7.132391929626465,0
0.2731046270296666,7.133737087249756,0
0.2814064216823342,7.135243892669678,0
0.2784763765108045,7.136592626571655,0
0.2811622512513734,7.137957334518433,0
0.277743865217922,7.139302015304565,0
0.2704187522890977,7.140645503997803,0
0.2655353436698815,7.141989231109619,0
0.2750579904773531,7.143331527709961,0
0.2755463313392747,7.144701957702637,0
0.2723721157367842,7.146224737167358,0
0.2706629227200585,7.147569894790649,0
0.2733487974606274,7.148913860321045,0
0.277743865217922,7.150258541107178,0
0.286778171163472,7.151601791381836,0
0.2848248077157855,7.152947425842285,0
0.2850689781467463,7.154326915740967,0
0.2853131485777072,7.1558146476745605,0
0.2770113539250396,7.157161951065064,0
0.2706629227200585,7.1585071086883545,0
0.2792088878036869,7.15985107421875,0
0.2809180808204126,7.161195516586304,0
0.2774996947869612,7.162557125091553,0
0.2745696496154315,7.163918495178223,0
0.2748138200463923,7.1652607917785645,0
0.2774996947869612,7.166741609573364,0
0.2882431937492369,7.168089151382446,0
0.2879990233182761,7.169434070587158,0
0.2862898303015504,7.170794486999512,0
0.2877548528873153,7.172136068344116,0
0.2811622512513734,7.173478841781616,0
0.2735929678915882,7.174840927124023,0
0.282871444268099,7.177617073059082,0
0.276523013063118,7.180327415466309,0
0.2743254791844707,7.183018684387207,0
0.2870223415944328,7.1857757568359375,0
0.2840922964229031,7.188739061355591,0
0.272616286167745,7.191438674926758,0
0.276523013063118,7.194238424301148,0
0.2718837748748626,7.197278738021851,0
0.2711512635819801,7.199974298477173,0
0.2843364668538639,7.202700614929199,0
0.2821389329752166,7.205420970916748,0
0.2696862409962153,7.209155797958374,0
0.2762788426321572,7.211885452270508,0
0.2677328775485288,7.214622974395752,0
0.268709559272372,7.217310667037964,0
0.2814064216823342,7.220036506652832,0
0.2794530582346477,7.222743511199951,0
0.2648028323769991,7.22552490234375,0
0.2753021609083139,7.2282397747039795,0
0.2667561958246855,7.230921030044556,0
0.2679770479794896,7.233642101287842,0
0.2843364668538639,7.236456871032715,0
0.2818947625442558,7.239140510559082,0
0.2691979001342937,7.241870403289795,0
0.2774996947869612,7.244597434997559,0
0.2691979001342937,7.247284412384033,0
0.2672445366866072,7.250006675720215,0
0.2814064216823342,7.2526891231536865,0
0.2779880356488828,7.255407333374023,0
0.2672445366866072,7.258123874664307,0
0.2743254791844707,7.260806560516357,0
0.2694420705652545,7.263493537902832,0
0.2652911732389207,7.266253471374512,0
0.2782322060798436,7.268946409225464,0
0.2753021609083139,7.271633863449097,0
0.2667561958246855,7.274386882781982,0
0.2672445366866072,7.277100801467895,0
0.2667561958246855,7.279794454574585,0
0.2628494689293126,7.282523393630981,0
0.272616286167745,7.2852489948272705,0
0.272616286167745,7.287936925888061,0
0.2694420705652545,7.290667533874512,0
0.2638261506531558,7.29334831237793,0
0.2679770479794896,7.296062231063843,0
0.2621169576364301,7.298792123794556,0
0.2679770479794896,7.301479816436768,0
0.2711512635819801,7.304203510284424,0
0.2667561958246855,7.306932687759399,0
0.2572335490172139,7.309622049331665,0
0.2652911732389207,7.312312602996826,0
0.2586985716029788,7.315074682235718,0
0.2616286167745085,7.317765951156616,0
0.2706629227200585,7.320446729660034,0
0.2684653888414112,7.323185920715332,0
0.2543035038456842,7.325918197631836,0
0.2665120253937247,7.328611850738525,0
0.2586985716029788,7.331343173980713,0
0.259675253326822,7.334086179733276,0
0.272616286167745,7.336772680282593,0
0.2694420705652545,7.339507579803467,0
0.2547918447076058,7.3421950340271,0
0.2665120253937247,7.344914674758911,0
0.2579660603100964,7.347636938095093,0
0.2594310828958612,7.35032320022583,0
0.2738371383225491,7.353010416030884,0
0.2701745818581369,7.35577654838562,0
0.2569893785862531,7.358462572097778,0
0.2648028323769991,7.361152410507202,0
0.2594310828958612,7.363910913467407,0
0.2577218898791356,7.366603851318359,0
0.271395434012941,7.369298934936523,0
0.2694420705652545,7.3720314502716064,0
0.2599194237577829,7.374865055084228,0
0.2650470028079599,7.377925395965576,0
0.2601635941887437,7.380824565887451,0
0.2574777194481747,7.383519649505615,0
0.2699304114271761,7.386291742324829,0
0.2684653888414112,7.388982772827148,0
0.2562568672933707,7.391667366027832,0
0.2630936393602734,7.394445419311523,0
0.2579660603100964,7.3971312046051025,0
0.2555243560004883,7.39982271194458,0
0.268709559272372,7.402575969696045,0
0.2657795141008423,7.405288219451904,0
0.2572335490172139,7.407979488372803,0
0.2599194237577829,7.410709619522095,0
0.2618727872054693,7.413396120071411,0
0.2557685264314491,7.416115999221802,0
0.2682212184104504,7.418844938278198,0
0.2657795141008423,7.421534538269043,0
0.2616286167745085,7.424278497695923,0
0.2599194237577829,7.427017688751221,0
0.2618727872054693,7.429709672927856,0
0.2586985716029788,7.43239951133728,0
0.2706629227200585,7.435160398483276,0
0.2699304114271761,7.437850713729858,0
0.268709559272372,7.440539360046387,0
0.2616286167745085,7.443275451660156,0
0.2677328775485288,7.446002721786499,0
0.2618727872054693,7.448690176010132,0
0.268709559272372,7.451416492462158,0
0.2740813087535099,7.454157829284668,0
0.2699304114271761,7.456845760345459,0
0.2599194237577829,7.459575176239014,0
0.2704187522890977,7.462265491485596,0
0.2638261506531558,7.464988708496094,0
0.2643144915150774,7.467718124389648,0
0.2716396044439018,7.47040581703186,0
0.2704187522890977,7.473092794418335,0
0.2555243560004883,7.475850343704224,0
0.2667561958246855,7.478537559509277,0
0.2586985716029788,7.481217384338379,0
0.259675253326822,7.483968496322632,0
0.2733487974606274,7.486658334732056,0
0.2706629227200585,7.489341974258423,0
0.2579660603100964,7.492058038711548,0
0.2677328775485288,7.494776010513306,0
0.2613844463435477,7.497463941574097,0
0.2621169576364301,7.500190019607544,0
0.2755463313392747,7.502874374389648,0
0.2735929678915882,7.50560736656189,0
0.263581980222195,7.508312463760376,0
0.2694420705652545,7.511006116867065,0
0.2660236845318031,7.513730049133301,0
0.2621169576364301,7.51643705368042,0
0.2753021609083139,7.519127607345581,0
0.272616286167745,7.521852493286133,0
0.2645586619460383,7.524590730667114,0
0.2660236845318031,7.527283430099487,0
0.2648028323769991,7.530025482177734,0
0.2628494689293126,7.532716035842895,0
0.2716396044439018,7.535439729690552,0
0.2711512635819801,7.538165330886841,0
0.2648028323769991,7.54085373878479,0
0.2599194237577829,7.543535947799683,0
0.2638261506531558,7.546292066574097,0
0.2599194237577829,7.54897928237915,0
0.2684653888414112,7.551668405532837,0
0.2718837748748626,7.554425001144409,0
0.2694420705652545,7.557115077972412,0
0.2601635941887437,7.559800148010254,0
0.2694420705652545,7.562529563903809,0
0.2628494689293126,7.565248966217041,0
0.2655353436698815,7.56794261932373,0
0.2733487974606274,7.570671319961548,0
0.2718837748748626,7.573359966278076,0
0.2582102307410572,7.576097011566162,0
0.268709559272372,7.578826189041138,0
0.2611402759125869,7.581510782241821,0
0.263581980222195,7.58423376083374,0
0.2760346722011964,7.586963653564453,0
0.2735929678915882,7.589653730392456,0
0.2594310828958612,7.592340469360352,0
0.2716396044439018,7.595102787017822,0
0.263581980222195,7.597794532775879,0
0.263581980222195,7.60048508644104,0
0.2774996947869612,7.603211402893066,0
0.2753021609083139,7.605931282043457,0
0.262361128067391,7.608612775802612,0
0.2694420705652545,7.61133885383606,0
0.2621169576364301,7.614054918289185,0
0.2594310828958612,7.616743564605713,0
0.272616286167745,7.619467258453369,0
0.2694420705652545,7.6221864223480225,0
0.2594310828958612,7.624917984008789,0
0.2638261506531558,7.627650737762451,0
0.2608961054816261,7.630336284637451,0
0.259675253326822,7.633015155792236,0
0.272616286167745,7.6357738971710205,0
0.2679770479794896,7.638458728790283,0
0.2626052984983518,7.641139984130859,0
0.2645586619460383,7.64391016960144,0
0.2662678549627639,7.6465904712677,0
0.2608961054816261,7.649275541305542,0
0.2701745818581369,7.651993989944458,0
0.2696862409962153,7.654706239700317,0
0.2657795141008423,7.657403707504272,0
0.2599194237577829,7.660128593444824,0
0.2660236845318031,7.662808656692505,0
0.2613844463435477,7.665538311004639,0
0.2672445366866072,7.668239116668701,0
0.2718837748748626,7.6709253787994385,0
0.2699304114271761,7.673640012741089,0
0.2579660603100964,7.676355838775635,0
0.2670003662556464,7.679084300994873,0
0.2601635941887437,7.681893348693848,0
0.2638261506531558,7.6848061084747314,0
0.2735929678915882,7.687495231628418,0
0.2716396044439018,7.690215826034546,0
0.2582102307410572,7.692903995513916,0
0.2694420705652545,7.695645093917847,0
0.2616286167745085,7.698371410369873,0
0.2640703210841166,7.701047897338867,0
0.2753021609083139,7.703732252120972,0
0.2716396044439018,7.706485509872436,0
0.2569893785862531,7.709171772003174,0
0.2691979001342937,7.711853981018066,0
0.2613844463435477,7.714605331420898,0
0.2633378097912342,7.717284202575684,0
0.2779880356488828,7.71996283531189,0
0.2755463313392747,7.722682952880859,0
0.2613844463435477,7.7254109382629395,0
0.2704187522890977,7.728094577789307,0
0.2655353436698815,7.730832099914551,0
0.2616286167745085,7.733513116836548,0
0.2750579904773531,7.736325740814209,0
0.2716396044439018,7.739048004150391,0
0.2594310828958612,7.741735935211182,0
0.2667561958246855,7.744445085525513,0
0.2640703210841166,7.7471764087677,0
0.2608961054816261,7.749859571456909,0
0.2735929678915882,7.752544403076172,0
0.2711512635819801,7.7553019523620605,0
0.2618727872054693,7.757986068725586,0
0.2645586619460383,7.760670900344849,0
0.2672445366866072,7.763392925262451,0
0.2640703210841166,7.766111373901367,0
0.2694420705652545,7.7688069343566895,0
0.268709559272372,7.771533966064453,0
0.2652911732389207,7.774253368377685,0
0.2601635941887437,7.776931047439575,0
0.2648028323769991,7.779651403427124,0
0.2579660603100964,7.782325744628906,0
0.2648028323769991,7.785042762756348,0
0.2696862409962153,7.78776216506958,0
0.2655353436698815,7.79044508934021,0
0.2547918447076058,7.793125629425049,0
0.2640703210841166,7.795880556106567,0
0.2574777194481747,7.7985687255859375,0
0.2611402759125869,7.801253318786621,0
0.2711512635819801,7.804002523422241,0
0.268709559272372,7.80668306350708,0
0.2543035038456842,7.809359550476074,0
0.2665120253937247,7.812082767486572,0
0.2579660603100964,7.814814329147339,0
0.2577218898791356,7.817524909973144,0
0.2706629227200585,7.820227384567261,0
0.2679770479794896,7.822908639907837,0
0.2540593334147234,7.825656175613403,0
0.2648028323769991,7.828348875045776,0
0.2577218898791356,7.831029891967773,0
0.2579660603100964,7.833750247955322,0
0.2733487974606274,7.836467027664185,0
0.271395434012941,7.839150667190552,0
0.259675253326822,7.841870069503784,0
0.2665120253937247,7.844588756561279,0
0.2618727872054693,7.8472678661346436,0
0.2586985716029788,7.849998950958252,0
0.271395434012941,7.852685928344727,0
0.2684653888414112,7.855404138565063,0
0.2608961054816261,7.858128309249878,0
0.2626052984983518,7.860816955566406,0
0.2608961054816261,7.863502502441406,0
0.2560126968624099,7.866257905960083,0
0.2672445366866072,7.8689470291137695,0
0.2655353436698815,7.871632099151611,0
0.259675253326822,7.874384880065918,0
0.2560126968624099,7.8770623207092285,0
0.2604077646197045,7.879745006561279,0
0.2555243560004883,7.882469654083252,0
0.2648028323769991,7.885191202163696,0
0.2699304114271761,7.887878656387329,0
0.2652911732389207,7.89060115814209,0
0.2574777194481747,7.893285989761352,0
0.2655353436698815,7.896020412445068,0
0.2608961054816261,7.89874005317688,0
0.268709559272372,7.901415586471558,0
0.2762788426321572,7.904130220413208,0
0.2770113539250396,7.906845808029175,0
0.2633378097912342,7.909533977508545,0
0.2762788426321572,7.912217855453491,0
0.267488707117568,7.914995193481445,0
0.268709559272372,7.917677879333496,0
0.2811622512513734,7.920376300811768,0
0.2774996947869612,7.92317271232605,0
0.2626052984983518,7.925972700119018,0
0.2738371383225491,7.928657054901123,0
0.2648028323769991,7.931387901306152,0
0.2638261506531558,7.934134721755981,0
0.2774996947869612,7.936819314956665,0
0.2750579904773531,7.939547061920166,0
0.2618727872054693,7.942225217819214,0
0.271395434012941,7.944948673248291,0
0.2640703210841166,7.947676181793213,0
0.2626052984983518,7.950361490249634,0
0.2745696496154315,7.953045845031738,0
0.272616286167745,7.955805063247681,0
0.259675253326822,7.958489656448364,0
0.2640703210841166,7.961171150207519,0
0.2599194237577829,7.963917255401611,0
0.2577218898791356,7.966628074645996,0
0.2733487974606274,7.969317436218262,0
0.2691979001342937,7.972039699554443,0
0.2626052984983518,7.974758386611938,0
0.263581980222195,7.977438449859619,0
0.2628494689293126,7.980156898498535,0
0.2586985716029788,7.982831954956055,0
0.2696862409962153,7.985559463500977,0
0.2711512635819801,7.988266468048096,0
0.2672445366866072,7.990949630737305,0
0.2608961054816261,7.99366283416748,0
0.2657795141008423,7.9963767528533936,0
0.2608961054816261,7.999057769775391,0
0.2660236845318031,8.001779079437256,0
0.2711512635819801,8.004490852355957,0
0.268709559272372,8.007171154022217,0
0.2567452081552923,8.009901762008667,0
0.2655353436698815,8.012592554092407,0
0.2586985716029788,8.015305995941162,0
0.2601635941887437,8.018033266067505,0
0.2679770479794896,8.020711421966553,0
0.2665120253937247,8.02338457107544,0
0.253326822121841,8.026139259338379,0
0.2652911732389207,8.028837203979492,0
0.2569893785862531,8.031512975692749,0
0.2579660603100964,8.034276962280273,0
0.2711512635819801,8.03695821762085,0
0.268709559272372,8.039636850357056,0
0.2557685264314491,8.042360544204712,0
0.2667561958246855,8.045073747634888,0
0.2582102307410572,8.047751903533936,0
0.2582102307410572,8.050477504730225,0
0.2733487974606274,8.053162336349487,0
0.2704187522890977,8.05589771270752,0
0.2594310828958612,8.058616161346436,0
0.2660236845318031,8.061302661895752,0
0.2633378097912342,8.06402039527893,0
0.2599194237577829,8.066747665405273,0
0.2718837748748626,8.06943655014038,0
0.2691979001342937,8.07211947441101,0
0.2645586619460383,8.074877262115479,0
0.2665120253937247,8.07756233215332,0
0.2655353436698815,8.080246925354004,0
0.2618727872054693,8.082971572875977,0
0.2723721157367842,8.08569073677063,0
0.271395434012941,8.088374137878418,0
0.2665120253937247,8.091093063354492,0
0.2608961054816261,8.093773603439331,0
0.2657795141008423,8.096477508544922,0
0.2606519350506653,8.099199295043945,0
0.2665120253937247,8.10188102722168,0
0.2699304114271761,8.104592323303223,0
0.267488707117568,8.107317209243774,0
0.2567452081552923,8.110001802444458,0
0.2648028323769991,8.112680912017822,0
0.2591869124649004,8.115433931350708,0
0.2613844463435477,8.118120431900024,0
0.2716396044439018,8.120807409286499,0
0.2696862409962153,8.12352728843689,0
0.2555243560004883,8.126235961914062,0
0.2665120253937247,8.128921747207642,0
0.2579660603100964,8.131650686264038,0
0.2594310828958612,8.134367942810059,0
0.272616286167745,8.137051105499268,0
0.271395434012941,8.139775514602661,0
0.2577218898791356,8.142460107803345,0
0.2679770479794896,8.145193099975586,0
0.2606519350506653,8.147917747497559,0
0.2628494689293126,8.150602102279663,0
0.2774996947869612,8.153279304504395,0
0.2757905017702355,8.156031131744385,0
0.2643144915150774,8.158713340759277,0
0.2699304114271761,8.1613929271698,0
0.2650470028079599,8.164238691329956,0
0.2640703210841166,8.166919708251953,0
0.2753021609083139,8.169660329818726,0
0.2723721157367842,8.172346591949463,0
0.263581980222195,8.175089597702026,0
0.2660236845318031,8.177807807922363,0
0.2650470028079599,8.18049168586731,0
0.2601635941887437,8.18317723274231,0
0.2735929678915882,8.18593168258667,0
0.2716396044439018,8.18862009048462,0
0.2657795141008423,8.191297769546509,0
0.2626052984983518,8.194055557250977,0
0.2645586619460383,8.196734428405762,0
0.259675253326822,8.199417114257812,0
0.2682212184104504,8.20213270187378,0
0.2694420705652545,8.204846858978271,0
0.2677328775485288,8.207526922225952,0
0.259675253326822,8.21024489402771,0
