semg,time,class
0.2909290684898058,0.0031206607818603,0
0.276523013063118,0.0058481693267822,0
0.2853131485777072,0.0085475444793701,0
0.2745696496154315,0.0113346576690673,0
0.2718837748748626,0.0140385627746582,0
0.2862898303015504,0.0167403221130371,0
0.2850689781467463,0.0195620059967041,0
0.2694420705652545,0.0222856998443603,0
0.2838481259919423,0.0249977111816406,0
0.2753021609083139,0.0276987552642822,0
0.2740813087535099,0.0304381847381591,0
0.2887315346111585,0.0331437587738037,0
0.2860456598705896,0.0358514785766601,0
0.2735929678915882,0.0385520458221435,0
0.2840922964229031,0.0412871837615966,0
0.2762788426321572,0.0439887046813964,0
0.2762788426321572,0.0466890335083007,0
0.2914174093517274,0.0494201183319091,0
0.2872665120253936,0.0521204471588134,0
0.2745696496154315,0.0548207759857177,0
0.2848248077157855,0.0575230121612548,0
0.2862898303015504,0.0602574348449707,0
0.2833597851300207,0.0629551410675048,0
0.2972774996947869,0.0656538009643554,0
0.294591624954218,0.0683507919311523,0
0.285557319008668,0.0710833072662353,0
0.2882431937492369,0.0737919807434082,0
0.2899523867659626,0.0764985084533691,0
0.2860456598705896,0.0791966915130615,0
0.2963008179709436,0.0819301605224609,0
0.2960566475399828,0.0846266746520996,0
0.2911732389207666,0.0873298645019531,0
0.2853131485777072,0.090052843093872,0
0.2921499206446099,0.0927515029907226,0
0.2862898303015504,0.0954556465148925,0
0.2911732389207666,0.0981538295745849,0
0.2950799658161396,0.1008868217468261,0
0.2909290684898058,0.1035873889923095,0
0.2799413990965693,0.1062891483306884,0
0.2884873641801977,0.1089920997619628,0
0.2814064216823342,0.1117241382598877,0
0.2831156146990599,0.11442232131958,0
0.2948357953851788,0.1171262264251709,0
0.2899523867659626,0.119861364364624,0
0.2753021609083139,0.1225700378417968,0
0.2875106824563544,0.1252791881561279,0
0.2792088878036869,0.1279890537261963,0
0.2794530582346477,0.1307663917541504,0
0.2928824319374923,0.1334762573242187,0
0.2892198754730801,0.1361842155456543,0
0.2743254791844707,0.1388771533966064,0
0.2860456598705896,0.1416139602661132,0
0.276523013063118,0.1443214416503906,0
0.2782322060798436,0.1470284461975097,0
0.2967891588328653,0.1497948169708252,0
0.2950799658161396,0.1525018215179443,0
0.2850689781467463,0.1552050113677978,0
0.295812477109022,0.1579093933105468,0
0.2897082163350017,0.1606497764587402,0
0.2899523867659626,0.1633665561676025,0
0.308753509949945,0.1660752296447754,0
0.308753509949945,0.1687796115875244,0
0.3016725674520815,0.1715161800384521,0
0.3065559760712977,0.1742258071899414,0
0.3031375900378463,0.1769344806671142,0
0.2984983518495909,0.1796729564666748,0
0.3104627029666706,0.1823830604553222,0
0.3068001465022585,0.185082197189331,0
0.2977658405567085,0.1877927780151367,0
0.2972774996947869,0.1905231475830078,0
0.2975216701257477,0.1932270526885986,0
0.2933707727994139,0.1959354877471923,0
0.300940056159199,0.1986498832702636,0
0.3024050787449639,0.2013907432556152,0
0.2972774996947869,0.2040941715240478,0
0.2928824319374923,0.2068066596984863,0
0.2960566475399828,0.2095487117767334,0
0.2897082163350017,0.212259292602539,0
0.2977658405567085,0.2149643898010254,0
0.3019167378830423,0.2176716327667236,0
0.2970333292638261,0.2204146385192871,0
0.2865340007325112,0.223137617111206,0
0.2953241362471004,0.2258374691009521,0
0.2892198754730801,0.2285394668579101,0
0.294591624954218,0.2313539981842041,0
0.3004517152972774,0.2340679168701172,0
0.2987425222805517,0.2367753982543945,0
0.2860456598705896,0.2395238876342773,0
0.2972774996947869,0.2422358989715576,0
0.2894640459040409,0.2449398040771484,0
0.2926382615065315,0.2476465702056884,0
0.3043584421926504,0.2504024505615234,0
0.300940056159199,0.2531054019927978,0
0.2853131485777072,0.2558081150054931,0
0.2970333292638261,0.258509874343872,0
0.2887315346111585,0.2612535953521728,0
0.2882431937492369,0.2639572620391845,0
0.3028934196068855,0.2666656970977783,0
0.3004517152972774,0.2694044113159179,0
0.2853131485777072,0.2721107006072998,0
0.295812477109022,0.2748198509216308,0
0.2882431937492369,0.2775266170501709,0
0.2872665120253936,0.2802653312683105,0
0.3019167378830423,0.2829725742340088,0
0.2992308631424734,0.2856743335723877,0
0.2872665120253936,0.2883784770965576,0
0.2931266023684531,0.2911415100097656,0
0.2870223415944328,0.2938578128814697,0
0.2845806372848247,0.2965664863586426,0
0.2977658405567085,0.2992970943450928,0
0.2950799658161396,0.3020038604736328,0
0.2853131485777072,0.3047070503234863,0
0.2872665120253936,0.3074138164520263,0
0.2848248077157855,0.3101482391357422,0
0.2784763765108045,0.3128538131713867,0
0.2897082163350017,0.3155577182769775,0
0.2875106824563544,0.3182597160339355,0
0.2831156146990599,0.3210043907165527,0
0.2814064216823342,0.3237276077270508,0
0.2843364668538639,0.3264486789703369,0
0.2794530582346477,0.3291645050048828,0
0.2887315346111585,0.3319120407104492,0
0.2899523867659626,0.3346188068389892,0
0.2848248077157855,0.3373246192932129,0
0.2774996947869612,0.3400630950927734,0
0.2831156146990599,0.3427705764770508,0
0.2767671834940788,0.3454976081848144,0
0.281650592113295,0.3482279777526855,0
0.2872665120253936,0.3509793281555176,0
0.2836039555609815,0.3536820411682129,0
0.2731046270296666,0.3563899993896484,0
0.282871444268099,0.3590941429138183,0
0.2757905017702355,0.3618316650390625,0
0.276523013063118,0.3645365238189697,0
0.2860456598705896,0.3672397136688232,0
0.2836039555609815,0.3700006008148193,0
0.2691979001342937,0.3727021217346191,0
0.2821389329752166,0.3754079341888428,0
0.2740813087535099,0.3781142234802246,0
0.2753021609083139,0.3808538913726806,0
0.2897082163350017,0.3835639953613281,0
0.2870223415944328,0.3862743377685547,0
0.272616286167745,0.3889803886413574,0
0.2848248077157855,0.3917269706726074,0
0.2762788426321572,0.3944349288940429,0
0.2745696496154315,0.3971438407897949,0
0.2892198754730801,0.399881362915039,0
0.2872665120253936,0.4025967121124267,0
0.2743254791844707,0.4053084850311279,0
0.2840922964229031,0.4080266952514648,0
0.2772555243560004,0.4107697010040283,0
0.2753021609083139,0.4134750366210937,0
0.2901965571969234,0.4161825180053711,0
0.2875106824563544,0.4188904762268066,0
0.2774996947869612,0.4216244220733642,0
0.2826272738371382,0.4243447780609131,0
0.2801855695275301,0.4270613193511963,0
0.2762788426321572,0.4298069477081299,0
0.2894640459040409,0.4325058460235595,0
0.2870223415944328,0.4352219104766845,0
0.2804297399584909,0.4379470348358154,0
0.2811622512513734,0.440720796585083,0
0.2814064216823342,0.4434261322021484,0
0.276523013063118,0.4461305141448974,0
0.2882431937492369,0.448845624923706,0
0.2860456598705896,0.4515929222106933,0
0.2811622512513734,0.45430588722229,0
0.2774996947869612,0.4570140838623047,0
0.2794530582346477,0.459756851196289,0
0.2738371383225491,0.4624700546264648,0
0.2823831034061774,0.465172529220581,0
0.2850689781467463,0.4678857326507568,0
0.2814064216823342,0.4706294536590576,0
0.2735929678915882,0.4733471870422363,0
0.2811622512513734,0.4760646820068359,0
0.2757905017702355,0.4787743091583252,0
0.2804297399584909,0.4815149307250976,0
0.2879990233182761,0.4842221736907959,0
0.2843364668538639,0.4872446060180664,0
0.2735929678915882,0.4900245666503906,0
0.281650592113295,0.4927310943603515,0
0.276523013063118,0.4954447746276855,0
0.2833597851300207,0.498152494430542,0
0.2901965571969234,0.5008907318115234,0
0.2860456598705896,0.5035998821258545,0
0.2735929678915882,0.5063042640686035,0
0.2848248077157855,0.509009838104248,0
0.277743865217922,0.5117490291595459,0
0.2794530582346477,0.5144596099853516,0
0.2909290684898058,0.5171701908111572,0
0.2889757050421193,0.519923210144043,0
0.2750579904773531,0.5226669311523438,0
0.286778171163472,0.5254099369049072,0
0.2782322060798436,0.5281298160552979,0
0.2787205469417653,0.5308985710144043,0
0.2923940910755707,0.5336108207702637,0
0.290684898058845,0.5363223552703857,0
0.2755463313392747,0.539034366607666,0
0.2872665120253936,0.5417730808258057,0
0.2789647173727261,0.5444903373718262,0
0.2782322060798436,0.5472040176391602,0
0.2933707727994139,0.5499718189239502,0
0.2909290684898058,0.5527000427246094,0
0.2774996947869612,0.555412769317627,0
0.2858014894396288,0.5581209659576416,0
0.2801855695275301,0.5608665943145752,0
0.2779880356488828,0.5635714530944824,0
0.2931266023684531,0.5662798881530762,0
0.290684898058845,0.56899094581604,0
0.2789647173727261,0.5717296600341797,0
0.2848248077157855,0.5744397640228271,0
0.2811622512513734,0.5771710872650146,0
0.2782322060798436,0.5799386501312256,0
0.2933707727994139,0.5826537609100342,0
0.2909290684898058,0.5853679180145264,0
0.2840922964229031,0.5880763530731201,0
0.2875106824563544,0.5908188819885254,0
0.286778171163472,0.5935342311859131,0
0.2811622512513734,0.5962495803833008,0
0.2928824319374923,0.5989668369293213,0
0.2911732389207666,0.6017084121704102,0
0.285557319008668,0.6044168472290039,0
0.282871444268099,0.6071290969848633,0
0.2853131485777072,0.6098880767822266,0
0.2796972286656085,0.6126022338867188,0
0.2889757050421193,0.6153175830841064,0
0.2921499206446099,0.6180288791656494,0
0.2860456598705896,0.6207764148712158,0
0.2792088878036869,0.6234948635101318,0
0.286778171163472,0.6262073516845703,0
0.2804297399584909,0.6289200782775879,0
0.285557319008668,0.6316745281219482,0
0.2909290684898058,0.6343774795532227,0
0.2889757050421193,0.6370985507965088,0
0.2774996947869612,0.6398415565490723,0
0.2875106824563544,0.6425526142120361,0
0.2804297399584909,0.6452615261077881,0
0.2836039555609815,0.6479732990264893,0
0.2938591136613355,0.65071702003479,0
0.2899523867659626,0.6534321308135986,0
0.2753021609083139,0.6561634540557861,0
0.2892198754730801,0.6588797569274902,0
0.2811622512513734,0.6616361141204834,0
0.2814064216823342,0.6643435955047607,0
0.295812477109022,0.6670546531677246,0
0.2928824319374923,0.6698088645935059,0
0.2774996947869612,0.6725189685821533,0
0.2899523867659626,0.6752376556396484,0
0.2814064216823342,0.6779401302337646,0
0.2794530582346477,0.6806931495666504,0
0.2950799658161396,0.6834030151367188,0
0.2921499206446099,0.686112642288208,0
0.2789647173727261,0.6888210773468018,0
0.2879990233182761,0.6915788650512695,0
0.2811622512513734,0.6943113803863525,0
0.2804297399584909,0.6970374584197998,0
0.2948357953851788,0.6997888088226318,0
0.2921499206446099,0.7024993896484375,0
0.2801855695275301,0.705207347869873,0
0.2850689781467463,0.7079188823699951,0
0.2811622512513734,0.7106685638427734,0
0.2784763765108045,0.713381290435791,0
0.2921499206446099,0.7160975933074951,0
0.2899523867659626,0.718815803527832,0
0.2809180808204126,0.7215569019317627,0
0.2836039555609815,0.7242732048034668,0
0.282871444268099,0.7269902229309082,0
0.2792088878036869,0.7297601699829102,0
0.291905750213649,0.732475996017456,0
0.2899523867659626,0.7351973056793213,0
0.2833597851300207,0.7379140853881836,0
0.2811622512513734,0.7407338619232178,0
0.282871444268099,0.7434420585632324,0
0.277743865217922,0.7461507320404053,0
0.2894640459040409,0.7488582134246826,0
0.2899523867659626,0.7516043186187744,0
0.2862898303015504,0.754317045211792,0
0.2809180808204126,0.7570245265960693,0
0.2872665120253936,0.7597649097442627,0
0.2811622512513734,0.7624807357788086,0
0.2875106824563544,0.7651886940002441,0
0.291905750213649,0.7679047584533691,0
0.2889757050421193,0.7706525325775146,0
0.2794530582346477,0.7733609676361084,0
0.2870223415944328,0.7760779857635498,0
0.2804297399584909,0.778785228729248,0
0.2850689781467463,0.7815299034118652,0
0.294591624954218,0.7842411994934082,0
0.2899523867659626,0.7869493961334229,0
0.2753021609083139,0.7896966934204102,0
0.2860456598705896,0.7924041748046875,0
0.2789647173727261,0.7951154708862305,0
0.2782322060798436,0.797821044921875,0
0.2914174093517274,0.8005657196044922,0
0.2894640459040409,0.8032732009887695,0
0.2743254791844707,0.8059806823730469,0
0.2860456598705896,0.8086917400360107,0
0.2774996947869612,0.8114328384399414,0
0.2748138200463923,0.8141417503356934,0
0.2899523867659626,0.8168432712554932,0
0.286778171163472,0.819586992263794,0
0.2723721157367842,0.8223013877868652,0
0.2836039555609815,0.8250184059143066,0
0.2770113539250396,0.8277270793914795,0
0.2757905017702355,0.8304717540740967,0
0.2909290684898058,0.8331799507141113,0
0.2887315346111585,0.8358917236328125,0
0.2772555243560004,0.8385999202728271,0
0.2821389329752166,0.8413786888122559,0
0.2774996947869612,0.8440961837768555,0
0.2733487974606274,0.8468084335327148,0
0.2875106824563544,0.8495759963989258,0
0.2843364668538639,0.8522799015045166,0
0.2762788426321572,0.8549990653991699,0
0.2794530582346477,0.8577070236206055,0
0.2789647173727261,0.860450029373169,0
0.2748138200463923,0.8631560802459717,0
0.2879990233182761,0.8658676147460938,0
0.286778171163472,0.8685793876647949,0
0.2801855695275301,0.8713192939758301,0
0.2789647173727261,0.8740301132202148,0
0.2804297399584909,0.8767387866973877,0
0.2755463313392747,0.879474401473999,0
0.2843364668538639,0.8821794986724854,0
0.2850689781467463,0.8848848342895508,0
0.2804297399584909,0.887589693069458,0
0.272616286167745,0.8903975486755371,0
0.2804297399584909,0.8931121826171875,0
0.2755463313392747,0.8958163261413574,0
0.281650592113295,0.898522138595581,0
0.2860456598705896,0.9012668132781982,0
0.2809180808204126,0.9039742946624756,0
0.2694420705652545,0.9066765308380128,0
0.2784763765108045,0.9094104766845704,0
0.2718837748748626,0.9121193885803224,0
0.276523013063118,0.9148249626159668,0
0.2843364668538639,0.9175281524658204,0
0.2804297399584909,0.9202632904052734,0
0.2662678549627639,0.922968864440918,0
0.2794530582346477,0.9256923198699952,0
0.2716396044439018,0.9284014701843262,0
0.2716396044439018,0.9311444759368896,0
0.2848248077157855,0.9338476657867432,0
0.282871444268099,0.936558723449707,0
0.2684653888414112,0.9392948150634766,0
0.2804297399584909,0.942007541656494,0
0.2716396044439018,0.944711208343506,0
0.2711512635819801,0.9474186897277832,0
0.2865340007325112,0.9501621723175048,0
0.2831156146990599,0.9528706073760986,0
0.2706629227200585,0.9555819034576416,0
0.2794530582346477,0.9582924842834472,0
0.2735929678915882,0.9610261917114258,0
0.271395434012941,0.9637339115142822,0
0.2860456598705896,0.9664552211761476,0
0.2833597851300207,0.9691648483276368,0
0.2733487974606274,0.9719221591949464,0
0.2782322060798436,0.9746317863464355,0
0.2757905017702355,0.9773361682891846,0
0.2718837748748626,0.9800698757171632,0
0.2860456598705896,0.9827792644500732,0
0.2833597851300207,0.9854803085327148,0
0.2735929678915882,0.9884819984436036,0
0.2787205469417653,0.9912314414978028,0
0.276523013063118,0.993938684463501,0
0.2735929678915882,0.9966483116149902,0
0.286778171163472,0.9993903636932372,0
0.2853131485777072,1.002098560333252,0
0.2796972286656085,1.004805088043213,0
0.2794530582346477,1.0075178146362305,0
0.2804297399584909,1.010253667831421,0
0.2760346722011964,1.0129611492156982,0
0.286778171163472,1.015669345855713,0
0.2882431937492369,1.018381118774414,0
0.2833597851300207,1.0211172103881836,0
0.2774996947869612,1.023829221725464,0
0.2831156146990599,1.0265474319458008,0
0.2774996947869612,1.029280662536621,0
0.2862898303015504,1.031989336013794,0
0.2892198754730801,1.0346980094909668,0
0.286778171163472,1.0374088287353516,0
0.2755463313392747,1.040153741836548,0
0.2843364668538639,1.042855978012085,0
0.2774996947869612,1.045564889907837,0
0.2801855695275301,1.0482773780822754,0
0.2899523867659626,1.0510218143463137,0
0.2860456598705896,1.053724765777588,0
0.2731046270296666,1.0564303398132324,0
0.2848248077157855,1.059138298034668,0
0.2770113539250396,1.061872959136963,0
0.2792088878036869,1.064584732055664,0
0.2923940910755707,1.0672974586486816,0
0.2897082163350017,1.0700411796569824,0
0.2745696496154315,1.0727481842041016,0
0.285557319008668,1.0754549503326416,0
0.2774996947869612,1.0781607627868652,0
0.276523013063118,1.080906629562378,0
0.2931266023684531,1.0836200714111328,0
0.2897082163350017,1.0863234996795654,0
0.2757905017702355,1.0890302658081057,0
0.2850689781467463,1.091789722442627,0
0.277743865217922,1.0945050716400146,0
0.276523013063118,1.0972044467926023,0
0.291905750213649,1.099938154220581,0
0.2899523867659626,1.1026458740234375,0
0.2794530582346477,1.1053543090820312,0
0.2850689781467463,1.108062744140625,0
0.2821389329752166,1.1108036041259766,0
0.277743865217922,1.1135098934173584,0
0.2914174093517274,1.1162211894989014,0
0.2889757050421193,1.1189377307891846,0
0.2804297399584909,1.1216769218444824,0
0.2823831034061774,1.1243796348571775,0
0.2818947625442558,1.1270837783813477,0
0.277743865217922,1.1299574375152588,0
0.2894640459040409,1.1326639652252195,0
0.2862898303015504,1.1353683471679688,0
0.2804297399584909,1.138068437576294,0
0.2784763765108045,1.1408071517944336,0
0.281650592113295,1.1435058116912842,0
0.2760346722011964,1.1462008953094482,0
0.2845806372848247,1.148902416229248,0
0.2870223415944328,1.151636838912964,0
0.2821389329752166,1.1543326377868652,0
0.2735929678915882,1.1570379734039309,0
0.281650592113295,1.1597754955291748,0
0.2760346722011964,1.162482738494873,0
0.2809180808204126,1.1651957035064695,0
0.2865340007325112,1.1679039001464844,0
0.282871444268099,1.1706442832946775,0
0.2704187522890977,1.1733498573303225,0
0.2811622512513734,1.1760571002960205,0
0.2743254791844707,1.1787676811218262,0
0.2792088878036869,1.1815056800842283,0
0.2909290684898058,1.1842164993286133,0
0.2875106824563544,1.187192678451538,0
0.2733487974606274,1.1900389194488523,0
0.2848248077157855,1.192779302597046,0
0.2774996947869612,1.1954841613769531,0
0.2782322060798436,1.198192119598389,0
0.2879990233182761,1.2009341716766355,0
0.2860456598705896,1.2036426067352295,0
0.2716396044439018,1.2063448429107666,0
0.2845806372848247,1.2090466022491455,0
0.2762788426321572,1.211803913116455,0
0.2762788426321572,1.2145097255706787,0
0.2928824319374923,1.217226505279541,0
0.2889757050421193,1.2199711799621582,0
0.2750579904773531,1.2226803302764893,0
0.286778171163472,1.2253820896148682,0
0.2784763765108045,1.2281007766723633,0
0.2774996947869612,1.2308509349822998,0
0.2931266023684531,1.2335596084594729,0
0.2884873641801977,1.2362630367279053,0
0.2757905017702355,1.238969326019287,0
0.2843364668538639,1.2417070865631104,0
0.2782322060798436,1.244415044784546,0
0.2770113539250396,1.247120380401611,0
0.2921499206446099,1.2499265670776367,0
0.2899523867659626,1.2526350021362305,0
0.2792088878036869,1.255340814590454,0
0.2831156146990599,1.2580549716949463,0
0.2801855695275301,1.260805606842041,0
0.2784763765108045,1.2635314464569092,0
0.2938591136613355,1.26623797416687,0
0.2882431937492369,1.2689487934112549,0
0.2811622512513734,1.2716991901397705,0
0.2821389329752166,1.2744016647338867,0
0.2848248077157855,1.2771079540252686,0
0.2784763765108045,1.2798469066619873,0
0.2899523867659626,1.282559871673584,0
0.2901965571969234,1.2852694988250732,0
0.285557319008668,1.2879743576049805,0
0.2804297399584909,1.2907154560089111,0
0.2831156146990599,1.2934200763702393,0
0.2784763765108045,1.296125411987305,0
0.2850689781467463,1.298828125,0
0.2889757050421193,1.3015737533569336,0
0.2850689781467463,1.3042826652526855,0
0.2753021609083139,1.3069899082183838,0
0.2843364668538639,1.3097267150878906,0
0.2782322060798436,1.3124349117279053,0
0.2814064216823342,1.3151297569274902,0
0.2899523867659626,1.3178398609161377,0
0.2870223415944328,1.3205718994140625,0
0.2733487974606274,1.323284149169922,0
0.2836039555609815,1.3259809017181396,0
0.276523013063118,1.3287019729614258,0
0.2770113539250396,1.3314862251281738,0
0.2889757050421193,1.3341999053955078,0
0.286778171163472,1.336907148361206,0
0.2718837748748626,1.339644193649292,0
0.2843364668538639,1.3423516750335691,0
0.2753021609083139,1.3450603485107422,0
0.2745696496154315,1.3477704524993896,0
0.2892198754730801,1.3505172729492188,0
0.2853131485777072,1.3532280921936035,0
0.2716396044439018,1.355940580368042,0
0.2809180808204126,1.3586475849151611,0
0.272616286167745,1.361384630203247,0
0.2704187522890977,1.3640921115875244,0
0.2843364668538639,1.3667974472045898,0
0.2811622512513734,1.3695402145385742,0
0.2706629227200585,1.372251033782959,0
0.277743865217922,1.374959945678711,0
0.2733487974606274,1.3776752948760986,0
0.2704187522890977,1.3804194927215576,0
0.2853131485777072,1.383124589920044,0
0.282871444268099,1.3858311176300049,0
0.2750579904773531,1.3885369300842283,0
0.2770113539250396,1.39127779006958,0
0.2755463313392747,1.3939855098724363,0
0.271395434012941,1.3966991901397705,0
0.2821389329752166,1.3994371891021729,0
0.2821389329752166,1.4021449089050293,0
0.276523013063118,1.40484881401062,0
0.2743254791844707,1.4075570106506348,0
0.2784763765108045,1.4103779792785645,0
0.271395434012941,1.413095474243164,0
0.2804297399584909,1.4158031940460205,0
0.281650592113295,1.4185032844543457,0
0.276523013063118,1.4212429523468018,0
0.2696862409962153,1.4239485263824463,0
0.2753021609083139,1.4266586303710938,0
0.2694420705652545,1.4294044971466064,0
0.2762788426321572,1.4321260452270508,0
0.2821389329752166,1.4348468780517578,0
0.2794530582346477,1.4375560283660889,0
0.2684653888414112,1.440293788909912,0
0.2789647173727261,1.4429969787597656,0
0.2723721157367842,1.4457032680511477,0
0.2748138200463923,1.4484052658081057,0
0.2862898303015504,1.4511682987213137,0
0.2843364668538639,1.453866958618164,0
0.2706629227200585,1.4565720558166504,0
0.2831156146990599,1.4593055248260498,0
0.2743254791844707,1.4620094299316406,0
0.2755463313392747,1.464714765548706,0
0.2899523867659626,1.4674274921417236,0
0.2875106824563544,1.4701666831970217,0
0.2731046270296666,1.4728751182556152,0
0.2858014894396288,1.4755849838256836,0
0.276523013063118,1.4782893657684326,0
0.2762788426321572,1.481029033660889,0
0.2921499206446099,1.483734369277954,0
0.2889757050421193,1.486738681793213,0
0.2753021609083139,1.4894890785217283,0
0.2860456598705896,1.4922003746032717,0
0.2772555243560004,1.4949164390563965,0
0.2757905017702355,1.4976248741149902,0
0.290684898058845,1.5003595352172852,0
0.2882431937492369,1.5030701160430908,0
0.2760346722011964,1.5059123039245603,0
0.2862898303015504,1.5090293884277344,0
0.277743865217922,1.5119683742523191,0
0.277743865217922,1.5147695541381836,0
0.2921499206446099,1.517936944961548,0
0.2889757050421193,1.521085262298584,0
0.2801855695275301,1.5239808559417725,0
0.2860456598705896,1.5267391204833984,0
0.2804297399584909,1.5298326015472412,0
0.2887315346111585,1.5329186916351318,0
0.2892198754730801,1.5358469486236572,0
0.2809180808204126,1.5389435291290283,0
0.2872665120253936,1.5421106815338137,0
0.2796972286656085,1.5452604293823242,0
0.2804297399584909,1.54840350151062,0
0.2938591136613355,1.551527738571167,0
0.2882431937492369,1.554656744003296,0
0.2809180808204126,1.557680368423462,0
0.2831156146990599,1.560887575149536,0
0.277743865217922,1.5637495517730713,0
0.2921499206446099,1.5669538974761963,0
0.2911732389207666,1.570176124572754,0
0.2757905017702355,1.5730273723602295,0
0.2875106824563544,1.5760605335235596,0
0.2784763765108045,1.578948736190796,0
0.2806739103894518,1.5819900035858154,0
0.2899523867659626,1.5850801467895508,0
0.2853131485777072,1.587878704071045,0
0.2767671834940788,1.590715408325195,0
0.2811622512513734,1.5939879417419434,0
0.2784763765108045,1.5971009731292725,0
0.2928824319374923,1.599968671798706,0
0.2901965571969234,1.6027448177337646,0
0.2804297399584909,1.6057438850402832,0
0.2875106824563544,1.6088881492614746,0
0.2804297399584909,1.611882209777832,0
0.2794530582346477,1.6149883270263672,0
0.2926382615065315,1.6181151866912842,0
0.2872665120253936,1.62134051322937,0
0.2804297399584909,1.6245067119598389,0
0.282871444268099,1.6275978088378906,0
0.2782322060798436,1.6307716369628906,0
0.2928824319374923,1.6338565349578855,0
0.2901965571969234,1.6369521617889404,0
0.2748138200463923,1.6399331092834473,0
0.2843364668538639,1.6430771350860596,0
0.2784763765108045,1.6462037563323977,0
0.2860456598705896,1.649038314819336,0
0.2899523867659626,1.6521787643432615,0
0.2843364668538639,1.655057430267334,0
0.2831156146990599,1.6580865383148191,0
0.2821389329752166,1.661176681518555,0
0.2789647173727261,1.6639938354492188,0
0.2938591136613355,1.667024850845337,0
0.2931266023684531,1.670166254043579,0
0.2774996947869612,1.6731901168823242,0
0.2894640459040409,1.6759521961212158,0
0.2811622512513734,1.6787316799163818,0
0.2836039555609815,1.6818838119506836,0
0.2938591136613355,1.6850028038024902,0
0.2892198754730801,1.6880052089691162,0
0.2823831034061774,1.6912107467651367,0
0.2850689781467463,1.6943025588989258,0
0.2811622512513734,1.697421312332153,0
0.2960566475399828,1.7005658149719238,0
0.2938591136613355,1.7037105560302734,0
0.2772555243560004,1.7067804336547852,0
0.2882431937492369,1.7099950313568115,0
0.2818947625442558,1.7130146026611328,0
0.290684898058845,1.7160773277282717,0
0.2933707727994139,1.7191555500030518,0
0.2836039555609815,1.7222228050231934,0
0.2872665120253936,1.7252600193023682,0
0.2831156146990599,1.7281196117401123,0
0.281650592113295,1.73107647895813,0
0.2967891588328653,1.7343025207519531,0
0.294591624954218,1.7371175289154053,0
0.2789647173727261,1.739959716796875,0
0.2889757050421193,1.7431905269622805,0
0.2811622512513734,1.7463245391845703,0
0.2884873641801977,1.7491142749786377,0
0.2921499206446099,1.7519822120666504,0
0.2872665120253936,1.75496506690979,0
0.2831156146990599,1.758025884628296,0
0.2850689781467463,1.761134147644043,0
0.2811622512513734,1.7642130851745603,0
0.2948357953851788,1.767338514328003,0
0.2914174093517274,1.77054762840271,0
0.2750579904773531,1.7736754417419434,0
0.2860456598705896,1.7769007682800293,0
0.2794530582346477,1.7800819873809814,0
0.2916615797826882,1.783170461654663,0
0.2921499206446099,1.786259412765503,0
0.2821389329752166,1.7892324924468994,0
0.290684898058845,1.7924354076385498,0
0.281650592113295,1.7955293655395508,0
0.2811622512513734,1.798358678817749,0
0.2914174093517274,1.80148720741272,0
0.2889757050421193,1.8043100833892824,0
0.276523013063118,1.80706000328064,0
0.2860456598705896,1.8098716735839844,0
0.2784763765108045,1.812584400177002,0
0.2814064216823342,1.815292835235596,0
0.290684898058845,1.8179998397827148,0
0.2872665120253936,1.8207473754882808,0
0.2731046270296666,1.8234648704528809,0
0.2843364668538639,1.8261685371398928,0
0.2755463313392747,1.828877687454224,0
0.2767671834940788,1.831621170043945,0
0.2911732389207666,1.8343384265899656,0
0.2882431937492369,1.8370494842529297,0
0.2733487974606274,1.8398046493530276,0
0.2870223415944328,1.8425135612487795,0
0.2779880356488828,1.8452205657958984,0
0.2772555243560004,1.8479344844818115,0
0.2921499206446099,1.8507592678070068,0
0.2884873641801977,1.8534681797027588,0
0.2743254791844707,1.8561818599700928,0
0.2850689781467463,1.8588943481445312,0
0.2774996947869612,1.8616509437561035,0
0.2782322060798436,1.8643603324890137,0
0.2909290684898058,1.867072343826294,0
0.2887315346111585,1.8698294162750244,0
0.276523013063118,1.8725366592407229,0
0.2831156146990599,1.875246286392212,0
0.2784763765108045,1.8779575824737549,0
0.2757905017702355,1.8807082176208496,0
0.2894640459040409,1.8834259510040283,0
0.2860456598705896,1.8861401081085205,0
0.276523013063118,1.8888475894927976,0
0.2804297399584909,1.8915965557098389,0
0.2796972286656085,1.8943085670471191,0
0.2753021609083139,1.8970158100128172,0
0.2894640459040409,1.899768590927124,0
0.2879990233182761,1.90248703956604,0
0.2821389329752166,1.905200958251953,0
0.2809180808204126,1.9079158306121824,0
0.2833597851300207,1.9107027053833008,0
0.277743865217922,1.913419246673584,0
0.2889757050421193,1.916135549545288,0
0.2889757050421193,1.9188451766967771,0
0.2848248077157855,1.921588659286499,0
0.2789647173727261,1.924299955368042,0
0.285557319008668,1.9270036220550537,0
0.2796972286656085,1.9297733306884768,0
0.2875106824563544,1.9324896335601809,0
0.2909290684898058,1.9352140426635744,0
0.2882431937492369,1.9379265308380127,0
0.2782322060798436,1.9406723976135252,0
0.2850689781467463,1.9433841705322263,0
0.2789647173727261,1.94590163230896,0
0.2782322060798436,1.947256565093994,0
0.2872665120253936,1.9486093521118164,0
0.2928824319374923,1.9499845504760744,0
0.2897082163350017,1.9513370990753172,0
0.2931266023684531,1.9526917934417725,0
0.2875106824563544,1.9540493488311768,0
0.2801855695275301,1.955406188964844,0
0.2794530582346477,1.956759452819824,0
0.2889757050421193,1.958115577697754,0
0.286778171163472,1.9594879150390625,0
0.2833597851300207,1.960845232009888,0
0.2809180808204126,1.9622032642364504,0
0.2821389329752166,1.9635560512542725,0
0.2882431937492369,1.9649109840393064,0
0.2960566475399828,1.9662659168243408,0
0.2933707727994139,1.967620849609375,0
0.2953241362471004,1.9689784049987795,0
0.2938591136613355,1.970348596572876,0
0.2860456598705896,1.9717004299163816,0
0.2809180808204126,1.973055362701416,0
0.2894640459040409,1.9744060039520264,0
0.2899523867659626,1.9757616519927976,0
0.2872665120253936,1.9771175384521484,0
0.2833597851300207,1.978471279144287,0
0.2833597851300207,1.9798405170440676,0
0.2843364668538639,1.9811947345733645,0
0.294591624954218,1.982552528381348,0
0.2943474545232571,1.9839107990264893,0
0.2926382615065315,1.985267162322998,0
0.2933707727994139,1.986823558807373,0
0.2858014894396288,1.988187789916992,0
0.2792088878036869,1.9895622730255127,0
0.2872665120253936,1.990919589996338,0
0.290684898058845,1.9922752380371092,0
0.2879990233182761,1.993631362915039,0
0.2840922964229031,1.9949853420257568,0
0.285557319008668,1.996338129043579,0
0.290684898058845,1.9976904392242432,0
0.2994750335734342,1.9990439414978027,0
0.2999633744353558,2.0004186630249023,0
0.2977658405567085,2.0017778873443604,0
0.299719204004395,2.003131866455078,0
0.2931266023684531,2.0044894218444824,0
0.2860456598705896,2.005845069885254,0
0.2909290684898058,2.007201910018921,0
0.2977658405567085,2.0085575580596924,0
0.2941032840922963,2.009930372238159,0
0.2899523867659626,2.0112876892089844,0
0.2897082163350017,2.012645959854126,0
0.2892198754730801,2.013998746871948,0
0.2977658405567085,2.015356063842773,0
0.3028934196068855,2.016709804534912,0
0.2989866927115125,2.0180652141571045,0
0.3019167378830423,2.0194365978240967,0
0.295812477109022,2.0207948684692383,0
0.2882431937492369,2.0221481323242188,0
0.2882431937492369,2.0235037803649902,0
0.2960566475399828,2.024857521057129,0
0.2933707727994139,2.0262131690979004,0
0.2892198754730801,2.0275654792785645,0
0.286778171163472,2.0289182662963867,0
0.2860456598705896,2.0302908420562744,0
0.2909290684898058,2.0316481590271,0
0.2987425222805517,2.0330076217651367,0
0.295812477109022,2.0343682765960693,0
0.2972774996947869,2.035719156265259,0
0.2941032840922963,2.037076234817505,0
0.2860456598705896,2.038433313369751,0
0.281650592113295,2.0398190021514893,0
0.2899523867659626,2.041178703308105,0
0.2894640459040409,2.0425338745117188,0
0.2865340007325112,2.043891191482544,0
0.2860456598705896,2.04524827003479,0
0.2882431937492369,2.0466020107269287,0
0.2965449884019044,2.04903507232666,0
0.3006958857282382,2.051804542541504,0
0.2980100109876693,2.054518222808838,0
0.2860456598705896,2.057232618331909,0
0.2970333292638261,2.059978723526001,0
0.2894640459040409,2.0626838207244877,0
0.2911732389207666,2.0653939247131348,0
0.3026492491759247,2.0681092739105225,0
0.2938591136613355,2.070855140686035,0
0.2804297399584909,2.073572158813477,0
0.2989866927115125,2.0762853622436523,0
0.2909290684898058,2.078998327255249,0
0.2909290684898058,2.0817456245422363,0
0.3028934196068855,2.084459066390991,0
0.3006958857282382,2.08717679977417,0
0.2860456598705896,2.0899205207824707,0
0.2975216701257477,2.092637062072754,0
0.2889757050421193,2.0953502655029297,0
0.2875106824563544,2.0980629920959477,0
0.3019167378830423,2.10080885887146,0
0.2984983518495909,2.1035163402557373,0
0.285557319008668,2.106223821640014,0
0.2936149432303747,2.1089329719543457,0
0.2860456598705896,2.1116750240325928,0
0.2845806372848247,2.1143832206726074,0
0.2999633744353558,2.117091655731201,0
0.2972774996947869,2.1198413372039795,0
0.2860456598705896,2.1225531101226807,0
0.2901965571969234,2.1252636909484863,0
0.2882431937492369,2.127974271774292,0
0.2831156146990599,2.1307175159454346,0
0.2972774996947869,2.1334333419799805,0
0.2950799658161396,2.1361536979675293,0
0.2872665120253936,2.1388628482818604,0
0.2875106824563544,2.141621351242065,0
0.2843364668538639,2.1443333625793457,0
0.2801855695275301,2.147044897079468,0
0.2860456598705896,2.14978551864624,0
0.285557319008668,2.1524970531463623,0
0.2794530582346477,2.155245542526245,0
0.2772555243560004,2.1579742431640625,0
0.2804297399584909,2.1607182025909424,0
0.2755463313392747,2.163431406021118,0
0.2853131485777072,2.166132688522339,0
0.286778171163472,2.1688380241394043,0
0.2831156146990599,2.171597480773926,0
0.2753021609083139,2.1743130683898926,0
0.282871444268099,2.1770219802856445,0
0.2753021609083139,2.179774522781372,0
0.2848248077157855,2.182483196258545,0
0.2889757050421193,2.185192823410034,0
0.2843364668538639,2.1878998279571533,0
0.2755463313392747,2.190638542175293,0
0.2860456598705896,2.1933486461639404,0
0.2784763765108045,2.1960580348968506,0
0.2796972286656085,2.198762893676758,0
0.2889757050421193,2.201512336730957,0
0.2882431937492369,2.2042224407196045,0
0.2740813087535099,2.2069315910339355,0
0.2872665120253936,2.209667921066284,0
0.2782322060798436,2.21237850189209,0
0.2789647173727261,2.2150886058807373,0
0.2909290684898058,2.2177999019622803,0
0.2860456598705896,2.2205474376678467,0
0.2706629227200585,2.223254442214966,0
0.2862898303015504,2.225956439971924,0
0.2779880356488828,2.228667020797729,0
0.2794530582346477,2.231400728225708,0
0.3024050787449639,2.23412561416626,0
0.2967891588328653,2.236846685409546,0
0.2843364668538639,2.239597082138061,0
0.3006958857282382,2.24230694770813,0
0.2970333292638261,2.245014905929565,0
0.2931266023684531,2.24771785736084,0
0.3058234647784152,2.250462293624878,0
0.3038701013307288,2.253169298171997,0
0.294591624954218,2.25587797164917,0
0.2967891588328653,2.258594036102295,0
0.2892198754730801,2.2613368034362797,0
0.2823831034061774,2.2640397548675537,0
0.291905750213649,2.2667484283447266,0
0.2872665120253936,2.269556999206543,0
0.2804297399584909,2.2722723484039307,0
0.2811622512513734,2.274985790252685,0
0.2826272738371382,2.2776975631713867,0
0.2774996947869612,2.28043532371521,0
0.2879990233182761,2.2831499576568604,0
0.2870223415944328,2.2858691215515137,0
0.282871444268099,2.288577079772949,0
0.2799413990965693,2.291345834732056,0
0.2794530582346477,2.294055223464966,0
0.2811622512513734,2.296760082244873,0
0.2850689781467463,2.299499750137329,0
0.2872665120253936,2.302198886871338,0
0.2774996947869612,2.304903268814087,0
0.2784763765108045,2.3076090812683105,0
0.286778171163472,2.310343027114868,0
0.2804297399584909,2.3130598068237305,0
0.2831156146990599,2.315779209136963,0
0.2977658405567085,2.318483829498291,0
0.2931266023684531,2.3212227821350098,0
0.290684898058845,2.323934316635132,1
0.3019167378830423,2.326643705368042,1
0.2950799658161396,2.3293912410736084,1
0.3002075448663166,2.33211088180542,1
0.3160786228787693,2.33483362197876,1
0.3058234647784152,2.337559461593628,1
0.291905750213649,2.3403170108795166,1
0.3180319863264558,2.3430278301239014,1
0.3133927481382004,2.3457326889038086,1
0.3341472347698693,2.348445415496826,1
0.3475766084727139,2.351187229156494,1
0.3573434257111463,2.3539023399353027,1
0.346111585886949,2.356611967086792,1
0.3585642778659503,2.3593547344207764,1
0.3475766084727139,2.3620710372924805,1
0.3419606885606152,2.3647892475128174,1
0.3605176413136368,2.367504119873047,1
0.356366743987303,2.37024474143982,1
0.3439140520083017,2.372947454452514,1
0.346111585886949,2.3756537437438965,1
0.3412281772677328,2.3783648014068604,1
0.3397631546819679,2.3811042308807373,1
0.3578317665730679,2.383812189102173,1
0.3544133805396166,2.3865230083465576,1
0.3439140520083017,2.3892219066619877,1
0.3458674154559882,2.3919622898101807,1
0.3419606885606152,2.394671678543091,1
0.3348797460627517,2.3973817825317383,1
0.3475766084727139,2.400128126144409,1
0.346111585886949,2.402840614318848,1
0.3446465633011841,2.4055516719818115,1
0.3400073251129287,2.4082581996917725,1
0.3358564277865949,2.411025285720825,1
0.3207178610670247,2.41373348236084,1
0.3256012696862409,2.416440486907959,1
0.3263337809791233,2.4191460609436035,1
0.3317055304602612,2.4218950271606445,1
0.3304846783054571,2.424612522125244,1
0.3341472347698693,2.427320718765259,1
0.3270662922720058,2.430067539215088,1
0.3341472347698693,2.432777643203736,1
0.3356122573556341,2.4354937076568604,1
0.3246245879623977,2.438211679458618,1
0.3143694298620436,2.440960645675659,1
0.3153461115858869,2.443667411804199,1
0.3046026126236112,2.4463813304901123,1
0.2967891588328653,2.4490926265716557,1
0.3006958857282382,2.45184063911438,1
0.3038701013307288,2.4545602798461914,1
0.2911732389207666,2.4572715759277344,1
0.300940056159199,2.4600181579589844,1
0.294591624954218,2.4627349376678467,1
0.3063118056403369,2.4654417037963867,1
0.3212062019289463,2.468151569366455,1
0.3163227933097301,2.4709019660949707,1
0.2987425222805517,2.4736151695251465,1
0.308753509949945,2.47632384300232,1
0.3016725674520815,2.47904109954834,1
0.3014283970211207,2.481781005859375,1
0.3124160664143571,2.484496116638184,1
0.3038701013307288,2.4875130653381348,1
0.2894640459040409,2.4902634620666504,1
0.3148577707239652,2.4929769039154053,1
0.3072884873641801,2.495685815811157,1
0.3077768282261017,2.498397827148437,1
0.3302405078744963,2.501173496246338,1
0.3326822121841044,2.5038905143737797,1
0.3214503723599071,2.5065925121307373,1
0.3263337809791233,2.5093281269073486,1
0.3172994750335733,2.5120396614074707,1
0.3097301916737882,2.514744281768799,1
0.3251129288243193,2.5174527168273926,1
0.322915394945672,2.520199775695801,1
0.3124160664143571,2.522925615310669,1
0.3158344524478085,2.5256333351135254,1
0.3107068733976315,2.528341054916382,1
0.3065559760712977,2.53110671043396,1
0.3273104627029666,2.533819913864136,1
0.3221828836527896,2.5365428924560547,1
0.3185203271883774,2.539294481277466,1
0.3304846783054571,2.5420048236846924,1
0.3290196557196922,2.5447139739990234,1
0.3317055304602612,2.5474205017089844,1
0.3558784031253814,2.550168752670288,1
0.3514833353680868,2.5528829097747803,1
0.3485532901965571,2.555593252182007,1
0.3553900622634598,2.5583012104034424,1
0.3556342326944206,2.561039686203003,1
0.3439140520083017,2.5637476444244385,1
0.3497741423513612,2.566458940505981,1
0.3468440971798314,2.5691699981689453,1
0.3390306433890855,2.571913003921509,1
0.3299963374435355,2.5746171474456787,1
0.3246245879623977,2.577324628829956,1
0.3141252594310828,2.5800583362579346,1
0.3160786228787693,2.582765817642212,1
0.3221828836527896,2.5854735374450684,1
0.3155902820168477,2.588172912597656,1
0.3165669637406909,2.5909056663513184,1
0.3321938713221828,2.5936098098754883,1
0.3212062019289463,2.596318483352661,1
0.308753509949945,2.599029064178467,1
0.3094860212428274,2.601766347885132,1
0.3092418508118666,2.604475736618042,1
0.2943474545232571,2.6071906089782715,1
0.3063118056403369,2.6099367141723637,1
0.2984983518495909,2.612644910812378,1
0.3065559760712977,2.615360736846924,1
0.3221828836527896,2.618067741394043,1
0.3172994750335733,2.6208112239837646,1
0.3031375900378463,2.62351655960083,1
0.3282871444268098,2.6262242794036865,1
0.3243804175314368,2.628947257995605,1
0.3558784031253814,2.63169527053833,1
0.3817604688072273,2.634403944015503,1
0.3898180930289341,2.6371238231658936,1
0.3859113661335611,2.6398701667785645,1
0.4044683188865827,2.6425790786743164,1
0.3966548650958368,2.645284652709961,1
0.3993407398364057,2.6479947566986084,1
0.3956781833719935,2.650754928588867,1
0.3934806494933462,2.653472423553467,1
0.3807837870833841,2.656181812286377,1
0.3788304236356976,2.658888101577759,1
0.3719936515687949,2.661629438400269,1
0.3578317665730679,2.6643383502960205,1
0.3671102429495787,2.667051076889038,1
0.3624710047613233,2.6697916984558105,1
0.3514833353680868,2.6725058555603027,1
0.346111585886949,2.675215005874634,1
0.3397631546819679,2.6779229640960693,1
0.3302405078744963,2.680656909942627,1
0.3348797460627517,2.6833651065826416,1
0.3297521670125747,2.686076164245605,1
0.3221828836527896,2.688783884048462,1
0.3216945427908679,2.691522121429444,1
0.3265779514100841,2.694231986999512,1
0.3185203271883774,2.696937084197998,1
0.3265779514100841,2.699676990509033,1
0.328042973995849,2.7023887634277344,1
0.3221828836527896,2.705095767974853,1
0.3124160664143571,2.7078075408935547,1
0.3197411793431814,2.7105419635772705,1
0.3114393846905139,2.713247060775757,1
0.3136369185691612,2.7159523963928223,1
0.3224270540837504,2.718656063079834,1
0.3180319863264558,2.721393823623657,1
0.3041142717616896,2.724106550216675,1
0.3124160664143571,2.72681212425232,1
0.3094860212428274,2.7295546531677246,1
0.3036259308997679,2.732276439666748,1
0.3063118056403369,2.7349929809570312,1
0.3060676352093761,2.7377114295959477,1
0.2950799658161396,2.740464210510254,1
0.3070443169332193,2.7431812286376958,1
0.2970333292638261,2.7458863258361816,1
0.2941032840922963,2.748596429824829,1
0.3109510438285923,2.751338243484497,1
0.3050909534855328,2.754047155380249,1
0.291905750213649,2.756760358810425,1
0.2987425222805517,2.7594947814941406,1
0.2933707727994139,2.762202262878418,1
0.2899523867659626,2.764907121658325,1
0.3055792943474544,2.767622232437134,1
0.3011842265901598,2.7703797817230225,1
0.2933707727994139,2.773088932037353,1
0.308753509949945,2.7757973670959477,1
0.3028934196068855,2.7785027027130127,1
0.3016725674520815,2.781311511993408,1
0.3192528384812598,2.784018278121948,1
0.3172994750335733,2.786726713180542,1
0.3124160664143571,2.789468765258789,1
0.3163227933097301,2.792166948318481,1
0.3116835551214747,2.7948713302612305,1
0.3077768282261017,2.797583103179932,1
0.3109510438285923,2.800321102142334,1
0.3072884873641801,2.8030292987823486,1
0.2980100109876693,2.805736541748047,1
0.3016725674520815,2.80845046043396,1
0.3055792943474544,2.8111886978149414,1
0.3004517152972774,2.8139026165008545,1
0.3109510438285923,2.8166208267211914,1
0.3116835551214747,2.8193655014038086,1
0.3094860212428274,2.822079658508301,1
0.3075326577951409,2.8247857093811035,1
0.3094860212428274,2.8275036811828613,1
0.3050909534855328,2.8302431106567383,1
0.3260896105481625,2.832960605621338,1
0.333170553046026,2.8356733322143555,1
0.3341472347698693,2.838387966156006,1
0.3329263826150652,2.841132640838623,1
0.3487974606275179,2.8438408374786377,1
0.340984006836772,2.846577405929565,1
0.340984006836772,2.849327087402344,1
0.3456232450250274,2.852041482925415,1
0.3419606885606152,2.854745388031006,1
0.328042973995849,2.85745620727539,1
0.3378097912342814,2.860199451446533,1
0.3299963374435355,2.8629093170166016,1
0.331949700891222,2.865619659423828,1
0.3414723476986936,2.868330240249634,1
0.3368331095104382,2.8710782527923584,1
0.3199853497741423,2.8737895488739014,1
0.3299963374435355,2.8765037059783936,1
0.3187644976193382,2.87920880317688,1
0.3163227933097301,2.8819494247436523,1
0.3297521670125747,2.884657621383667,1
0.3243804175314368,2.887360095977783,1
0.3097301916737882,2.8901820182800293,1
0.3165669637406909,2.892887592315674,1
0.3068001465022585,2.895592212677002,1
0.308753509949945,2.8982973098754883,1
0.3270662922720058,2.901034355163574,1
0.3226712245147112,2.9037389755249023,1
0.3131485777072396,2.906440734863281,1
0.3185203271883774,2.9091477394104004,1
0.3116835551214747,2.911891222000122,1
0.3068001465022585,2.9146008491516118,1
0.3299963374435355,2.917308568954468,1
0.326822121841045,2.9200456142425537,1
0.313881089000122,2.922752857208252,1
0.3221828836527896,2.925457715988159,1
0.3243804175314368,2.92816162109375,1
0.3143694298620436,2.9309022426605225,1
0.3221828836527896,2.933605670928955,1
0.3192528384812598,2.9363160133361816,1
0.3109510438285923,2.939018487930298,1
0.3114393846905139,2.941756010055542,1
0.3185203271883774,2.9444615840911865,1
0.3114393846905139,2.9471628665924072,1
0.3263337809791233,2.9498953819274902,1
0.328042973995849,2.9526045322418213,1
0.3207178610670247,2.955307483673096,1
0.3116835551214747,2.95801329612732,1
0.3153461115858869,2.960752487182617,1
0.3085093395189842,2.963465452194214,1
0.3092418508118666,2.9661734104156494,1
0.3116835551214747,2.9688825607299805,1
0.3050909534855328,2.971620559692383,1
0.2928824319374923,2.9743268489837646,1
0.304846783054572,2.977031707763672,1
0.2977658405567085,2.9797675609588623,1
0.3026492491759247,2.982485294342041,1
0.3185203271883774,2.985194206237793,1
0.3094860212428274,2.988203525543213,1
0.2970333292638261,2.990947961807251,1
0.3107068733976315,2.99365782737732,1
0.304846783054572,2.996367931365967,1
0.3155902820168477,2.9990768432617188,1
0.331949700891222,3.0018134117126465,1
0.3246245879623977,3.004523038864136,1
0.3107068733976315,3.00723934173584,1
0.3253570992552801,3.0100038051605225,1
0.3163227933097301,3.0127193927764893,1
0.3109510438285923,3.015424489974976,1
0.3277988035648882,3.0181281566619877,1
0.3234037358075936,3.020869016647339,1
0.3077768282261017,3.0235774517059326,1
0.3129044072762788,3.0262773036956787,1
0.3019167378830423,3.028981924057007,1
0.2953241362471004,3.0317227840423584,1
0.3094860212428274,3.0344271659851074,1
0.3050909534855328,3.037130832672119,1
0.294591624954218,3.039880752563477,1
0.304846783054572,3.0425870418548584,1
0.2977658405567085,3.045295476913452,1
0.2994750335734342,3.048002004623413,1
0.3148577707239652,3.0507402420043945,1
0.3133927481382004,3.053440809249878,1
0.3043584421926504,3.0561482906341557,1
0.3092418508118666,3.0588488578796387,1
0.3085093395189842,3.061589002609253,1
0.3046026126236112,3.0642991065979004,1
0.3172994750335733,3.0670032501220703,1
0.3155902820168477,3.069735050201416,1
0.3077768282261017,3.07244086265564,1
0.3016725674520815,3.075147151947021,1
0.2960566475399828,3.077862024307251,1
0.2923940910755707,3.080601692199707,1
0.2967891588328653,3.083310842514038,1
0.294591624954218,3.086012840270996,1
0.2977658405567085,3.088721752166748,1
0.2989866927115125,3.091459035873413,1
0.3068001465022585,3.094170331954956,1
0.3026492491759247,3.0968801975250244,1
0.3089976803809058,3.099622964859009,1
0.3143694298620436,3.10232925415039,1
0.3104627029666706,3.1050407886505127,1
0.2980100109876693,3.107745885848999,1
0.3055792943474544,3.110485553741455,1
0.2984983518495909,3.1131932735443115,1
0.3026492491759247,3.1159043312072754,1
0.3124160664143571,3.118614912033081,1
0.3053351239164936,3.121354818344116,1
0.290684898058845,3.1240622997283936,1
0.2987425222805517,3.1267662048339844,1
0.2904407276278842,3.129523992538452,1
0.2840922964229031,3.132233142852783,1
0.2977658405567085,3.134939193725586,1
0.2950799658161396,3.137645721435547,1
0.2804297399584909,3.14039158821106,1
0.2909290684898058,3.143102169036865,1
0.2814064216823342,3.145805835723877,1
0.2774996947869612,3.148511409759521,1
0.291905750213649,3.1512539386749268,1
0.2860456598705896,3.153960943222046,1
0.2753021609083139,3.156665802001953,1
0.2789647173727261,3.1594083309173584,1
0.2753021609083139,3.1621172428131104,1
0.2645586619460383,3.164825201034546,1
0.276523013063118,3.1675291061401367,1
0.2743254791844707,3.170269727706909,1
0.2638261506531558,3.172973871231079,1
0.2643144915150774,3.1756770610809326,1
0.258454401172018,3.178380012512207,1
0.2481992430716639,3.181119203567505,1
0.2586985716029788,3.183823585510254,1
0.2574777194481747,3.186535120010376,1
0.2508851178122329,3.189234495162964,1
0.2518617995360761,3.191993474960327,1
0.2528384812599193,3.1946980953216557,1
0.2479550726407031,3.197416067123413,1
0.2652911732389207,3.200157403945923,1
0.2655353436698815,3.202866315841675,1
0.2640703210841166,3.2055790424346924,1
0.2586985716029788,3.208287477493286,1
0.2608961054816261,3.211170196533203,1
0.2579660603100964,3.213875770568848,1
0.271395434012941,3.2165865898132324,1
0.2757905017702355,3.219318389892578,1
0.2711512635819801,3.222031354904175,1
0.2621169576364301,3.224739789962769,1
0.2684653888414112,3.227447271347046,1
0.2628494689293126,3.230175018310547,1
0.2667561958246855,3.232887029647827,1
0.2743254791844707,3.23559832572937,1
0.2655353436698815,3.2383036613464355,1
0.2547918447076058,3.2410614490509038,1
0.2743254791844707,3.2437729835510254,1
0.2655353436698815,3.2464888095855717,1
0.2679770479794896,3.249192953109741,1
0.2794530582346477,3.2519564628601074,1
0.2787205469417653,3.254669189453125,1
0.2660236845318031,3.257377862930298,1
0.2774996947869612,3.2601158618927,1
0.2691979001342937,3.262825727462769,1
0.2733487974606274,3.2655398845672607,1
0.2894640459040409,3.268251180648804,1
0.2914174093517274,3.270994186401367,1
0.2811622512513734,3.2737176418304443,1
0.2931266023684531,3.2764296531677246,1
0.2850689781467463,3.279138565063477,1
0.2843364668538639,3.2818799018859863,1
0.2999633744353558,3.284590244293213,1
0.2965449884019044,3.287306308746338,1
0.2843364668538639,3.290114164352417,1
0.2894640459040409,3.2928152084350586,1
0.2814064216823342,3.295515775680542,1
0.2770113539250396,3.298226833343506,1
0.2909290684898058,3.300969362258911,1
0.2892198754730801,3.303677082061768,1
0.2789647173727261,3.3063974380493164,1
0.2833597851300207,3.3091020584106445,1
0.2794530582346477,3.3118371963500977,1
0.2799413990965693,3.314547538757324,1
0.2972774996947869,3.31725549697876,1
0.2984983518495909,3.320002794265747,1
0.2970333292638261,3.3227150440216064,1
0.3038701013307288,3.325423240661621,1
0.3070443169332193,3.32813572883606,1
0.3011842265901598,3.330873250961304,1
0.3153461115858869,3.3335812091827397,1
0.3133927481382004,3.336290121078491,1
0.3094860212428274,3.3390021324157715,1
0.3070443169332193,3.341766119003296,1
0.3124160664143571,3.344489336013794,1
0.3075326577951409,3.347197294235229,1
0.3202295202051031,3.349944829940796,1
0.324136247100476,3.3526570796966557,1
0.3192528384812598,3.3553624153137207,1
0.3097301916737882,3.358071565628052,1
0.3143694298620436,3.3608076572418213,1
0.3060676352093761,3.363518476486206,1
0.3016725674520815,3.3662338256835938,1
0.3094860212428274,3.3689403533935547,1
0.3006958857282382,3.3717079162597656,1
0.2879990233182761,3.374418258666992,1
0.2989866927115125,3.377125024795532,1
0.290684898058845,3.379866600036621,1
0.2879990233182761,3.382598400115967,1
0.2999633744353558,3.3853180408477783,1
0.2931266023684531,3.388026714324951,1
0.2782322060798436,3.3907666206359863,1
0.2882431937492369,3.393476724624634,1
0.2801855695275301,3.396186351776123,1
0.272616286167745,3.3988940715789795,1
0.286778171163472,3.4016263484954834,1
0.2801855695275301,3.4043431282043457,1
0.2655353436698815,3.407050371170044,1
0.2770113539250396,3.409790277481079,1
0.268709559272372,3.4124979972839355,1
0.2621169576364301,3.4152028560638428,1
0.2716396044439018,3.417907953262329,1
0.2679770479794896,3.4206438064575195,1
0.254547674276645,3.423346996307373,1
0.2616286167745085,3.426060914993286,1
0.2550360151385666,3.42876935005188,1
0.2499084360883896,3.4315147399902344,1
0.263581980222195,3.434217929840088,1
0.2618727872054693,3.4369266033172607,1
0.2589427420339396,3.4396605491638184,1
0.2567452081552923,3.442378044128418,1
0.2508851178122329,3.4450838565826416,1
0.2538151629837626,3.447796583175659,1
0.2606519350506653,3.450540065765381,1
0.2586985716029788,3.4532485008239746,1
0.2547918447076058,3.4559531211853027,1
0.2547918447076058,3.4586522579193115,1
0.2579660603100964,3.461383819580078,1
0.2528384812599193,3.4640913009643555,1
0.2665120253937247,3.4667954444885254,1
0.2694420705652545,3.469535112380981,1
0.2628494689293126,3.472247362136841,1
0.2562568672933707,3.4749550819396973,1
0.2677328775485288,3.477663278579712,1
0.2594310828958612,3.48039984703064,1
0.259675253326822,3.483102560043335,1
0.2704187522890977,3.485811948776245,1
0.2601635941887437,3.4888179302215576,1
0.2547918447076058,3.491586685180664,1
0.2696862409962153,3.494297981262207,1
0.2638261506531558,3.4970080852508545,1
0.2718837748748626,3.4997520446777344,1
0.2831156146990599,3.5024659633636475,1
0.2755463313392747,3.5051708221435547,1
0.2640703210841166,3.507874727249145,1
0.2750579904773531,3.510608434677124,1
0.268709559272372,3.513319730758667,1
0.2684653888414112,3.516035795211792,1
0.2750579904773531,3.518742084503174,1
0.272616286167745,3.5214860439300537,1
0.2582102307410572,3.5241923332214355,1
0.2762788426321572,3.526911735534668,1
0.268709559272372,3.5296521186828613,1
0.2694420705652545,3.532362222671509,1
0.2821389329752166,3.53507399559021,1
0.2772555243560004,3.537816047668457,1
0.2626052984983518,3.5405664443969727,1
0.271395434012941,3.5432980060577397,1
0.2621169576364301,3.546016931533813,1
0.2604077646197045,3.5487234592437744,1
0.2711512635819801,3.5514795780181885,1
0.2735929678915882,3.554184913635254,1
0.2621169576364301,3.5568947792053223,1
0.2667561958246855,3.559635639190674,1
0.2606519350506653,3.5623435974121094,1
0.254547674276645,3.5650479793548584,1
0.2630936393602734,3.5677523612976074,1
0.2608961054816261,3.570500612258911,1
0.2530826516908802,3.5732038021087646,1
0.2569893785862531,3.575911521911621,1
0.2525943108289585,3.5786168575286865,1
0.2518617995360761,3.5813591480255127,1
0.268709559272372,3.5840721130371094,1
0.2672445366866072,3.586778402328491,1
0.2608961054816261,3.5895283222198486,1
0.2621169576364301,3.5922398567199707,1
0.2638261506531558,3.594946384429932,1
0.2567452081552923,3.597651243209839,1
0.2677328775485288,3.6003942489624023,1
0.2704187522890977,3.603098392486572,1
0.2621169576364301,3.605805158615112,1
0.2613844463435477,3.608512163162232,1
0.272616286167745,3.6112778186798096,1
0.271395434012941,3.613985300064087,1
0.2872665120253936,3.616698026657105,1
0.2931266023684531,3.619433879852295,1
0.2948357953851788,3.622151136398315,1
0.2909290684898058,3.624859809875488,1
0.2970333292638261,3.627562999725342,1
0.2911732389207666,3.630300045013428,1
0.2994750335734342,3.633009672164917,1
0.3148577707239652,3.635709524154663,1
0.3126602368453179,3.638406753540039,1
0.3031375900378463,3.641147375106812,1
0.3182761567574166,3.6438746452331534,1
0.3102185325357098,3.6465890407562256,1
0.3111952142595531,3.6493403911590576,1
0.3238920766695152,3.652052879333496,1
0.3168111341716517,3.654760837554932,1
0.3006958857282382,3.6574671268463135,1
0.3163227933097301,3.660209178924561,1
0.3077768282261017,3.66291618347168,1
0.304846783054572,3.665629386901856,1
0.3202295202051031,3.6683430671691895,1
0.3143694298620436,3.6710898876190186,1
0.3004517152972774,3.673797845840454,1
0.3082651690880233,3.67650318145752,1
0.3026492491759247,3.679208993911743,1
0.2938591136613355,3.68194842338562,1
0.3097301916737882,3.684662103652954,1
0.3065559760712977,3.687371492385864,1
0.2943474545232571,3.690110921859741,1
0.2953241362471004,3.692823648452759,1
0.2872665120253936,3.695533275604248,1
0.2796972286656085,3.698252677917481,1
0.2836039555609815,3.7009997367858887,1
0.2804297399584909,3.7037158012390137,1
0.2696862409962153,3.706425905227661,1
0.2706629227200585,3.7091360092163086,1
0.2665120253937247,3.711884021759033,1
0.2665120253937247,3.714585304260254,1
0.2733487974606274,3.717297077178955,1
0.2716396044439018,3.720036268234253,1
0.2657795141008423,3.722743272781372,1
0.2616286167745085,3.7254507541656494,1
0.259675253326822,3.728156805038452,1
0.2508851178122329,3.730920791625977,1
0.2543035038456842,3.733642578125,1
0.2550360151385666,3.736363649368286,1
0.2511292882431937,3.739072799682617,1
0.2450250274691734,3.741831064224243,1
0.2508851178122329,3.744552612304688,1
0.2469783909168599,3.747271776199341,1
0.2577218898791356,3.750021696090698,1
0.2655353436698815,3.752738475799561,1
0.2618727872054693,3.7554430961608887,1
0.2516176291051153,3.758142709732056,1
0.2586985716029788,3.760894060134888,1
0.2503967769503112,3.763597011566162,1
0.2528384812599193,3.7663049697875977,1
0.263581980222195,3.7690136432647705,1
0.2621169576364301,3.771754026412964,1
0.2499084360883896,3.774470090866089,1
0.2589427420339396,3.777174949645996,1
0.2530826516908802,3.779917478561402,1
0.2511292882431937,3.782620668411255,1
0.2611402759125869,3.785329580307007,1
0.2626052984983518,3.788036108016968,1
0.2491759247955072,3.790785074234009,1
0.2543035038456842,3.793492078781128,1
0.2479550726407031,3.796215057373047,1
0.2481992430716639,3.798924684524536,1
0.2540593334147234,3.8017349243164062,1
0.2569893785862531,3.804444074630737,1
0.2452691979001342,3.8071601390838623,1
0.2508851178122329,3.810009002685547,1
0.2425833231595653,3.812721014022827,1
0.2408741301428396,3.815431594848633,1
0.2543035038456842,3.818134069442749,1
0.2540593334147234,3.8208742141723633,1
0.2450250274691734,3.823589324951172,1
0.2499084360883896,3.826296806335449,1
0.2435600048834085,3.829009294509888,1
0.2438041753143693,3.831770420074463,1
0.2530826516908802,3.834486961364746,1
0.2530826516908802,3.837193012237549,1
0.2452691979001342,3.8399407863616943,1
0.2516176291051153,3.842642545700073,1
0.2508851178122329,3.845360279083252,1
0.2508851178122329,3.8480708599090576,1
0.268709559272372,3.850916147232056,1
0.2672445366866072,3.853630304336548,1
0.2638261506531558,3.8563342094421382,1
0.2648028323769991,3.8590407371521,1
0.2652911732389207,3.86179256439209,1
0.2611402759125869,3.864503145217896,1
0.2745696496154315,3.867207527160645,1
0.2767671834940788,3.869949579238892,1
0.2738371383225491,3.872661590576172,1
0.272616286167745,3.875376701354981,1
0.2784763765108045,3.878086805343628,1
0.2774996947869612,3.880829811096192,1
0.2892198754730801,3.8835647106170654,1
0.2901965571969234,3.8862695693969727,1
0.2875106824563544,3.8889784812927246,1
0.2792088878036869,3.891720771789551,1
0.2860456598705896,3.894431352615357,1
0.2789647173727261,3.8971428871154794,1
0.2809180808204126,3.899890422821045,1
0.286778171163472,3.902598142623901,1
0.2831156146990599,3.905307054519653,1
0.2696862409962153,3.908015012741089,1
0.2850689781467463,3.910756826400757,1
0.2770113539250396,3.913466930389404,1
0.2774996947869612,3.916175842285156,1
0.2889757050421193,3.9188857078552246,1
0.2848248077157855,3.921633005142212,0
0.2716396044439018,3.924340009689331,0
0.2794530582346477,3.927051782608032,0
0.2704187522890977,3.9297900199890137,0
0.2694420705652545,3.932504177093506,0
0.2850689781467463,3.9352097511291504,0
0.2823831034061774,3.937913179397583,0
0.2709070931510193,3.940655946731568,0
0.281650592113295,3.943361282348633,0
0.2735929678915882,3.946082592010498,0
0.2801855695275301,3.9488043785095215,0
0.2989866927115125,3.9515576362609854,0
0.2965449884019044,3.954273462295532,0
0.2811622512513734,3.9569852352142334,0
0.2941032840922963,3.959733247756958,0
0.2926382615065315,3.962445735931397,0
0.2850689781467463,3.965153932571411,0
0.2965449884019044,3.9678640365600586,0
0.2931266023684531,3.9706292152404794,0
0.2831156146990599,3.973350524902344,0
0.285557319008668,3.976061820983887,0
0.2831156146990599,3.978764057159424,0
0.2792088878036869,3.981510877609253,0
0.2889757050421193,3.984227180480957,0
0.2872665120253936,3.9872586727142334,0
0.2787205469417653,3.9900174140930176,0
0.2850689781467463,3.9927377700805664,0
0.2831156146990599,3.995445728302002,0
0.2789647173727261,3.998159885406494,0
0.2960566475399828,4.000894069671631,0
0.2950799658161396,4.003605127334595,0
0.291905750213649,4.006313800811768,0
0.2887315346111585,4.009023666381836,0
0.2889757050421193,4.011770248413086,0
0.2850689781467463,4.014488697052002,0
0.2938591136613355,4.017196178436279,0
0.2977658405567085,4.019944429397583,0
0.2955683066780612,4.022653102874756,0
0.2936149432303747,4.025365829467773,0
0.2980100109876693,4.0280749797821045,0
0.2938591136613355,4.030827760696411,0
0.2987425222805517,4.033545970916748,0
0.2977658405567085,4.036257028579712,0
0.2926382615065315,4.038967132568359,0
0.2821389329752166,4.041703701019287,0
0.2921499206446099,4.044410228729248,0
0.2860456598705896,4.047137498855591,0
0.2897082163350017,4.049890518188477,0
0.2963008179709436,4.052603244781494,0
0.2965449884019044,4.055314302444458,0
0.2843364668538639,4.058023929595947,0
0.294591624954218,4.060775279998779,0
0.286778171163472,4.063485860824585,0
0.2933707727994139,4.066200733184815,0
0.2992308631424734,4.068920373916626,0
0.2960566475399828,4.071669101715088,0
0.2809180808204126,4.074385404586792,0
0.2931266023684531,4.0770909786224365,0
0.2843364668538639,4.079833984375,0
0.2840922964229031,4.082540273666382,0
0.2977658405567085,4.085246801376343,0
0.2923940910755707,4.087960720062256,0
0.2843364668538639,4.09071946144104,0
0.2882431937492369,4.093427658081055,0
0.2858014894396288,4.096134901046753,0
0.2774996947869612,4.0988428592681885,0
0.2899523867659626,4.101583003997803,0
0.2889757050421193,4.104292869567871,0
0.2794530582346477,4.107002973556519,0
0.2814064216823342,4.109741926193237,0
0.2745696496154315,4.112443685531616,0
0.263581980222195,4.115148305892944,0
0.2743254791844707,4.117846488952637,0
0.2718837748748626,4.120589971542358,0
0.2599194237577829,4.123292446136475,0
0.2679770479794896,4.125994443893433,0
0.2694420705652545,4.12870979309082,0
0.2626052984983518,4.131451606750488,0
0.2735929678915882,4.134153842926025,0
0.272616286167745,4.136872053146362,0
0.272616286167745,4.139617681503296,0
0.2748138200463923,4.142325878143311,0
0.2794530582346477,4.145031213760376,0
0.2735929678915882,4.147753715515137,0
0.2821389329752166,4.15051007270813,0
0.2821389329752166,4.153220176696777,0
0.2779880356488828,4.155926942825317,0
0.2706629227200585,4.158635139465332,0
0.2774996947869612,4.161369562149048,0
0.2723721157367842,4.164079189300537,0
0.2755463313392747,4.166780233383179,0
0.2804297399584909,4.169517278671265,0
0.2809180808204126,4.17222785949707,0
0.2704187522890977,4.174930095672607,0
0.2782322060798436,4.177640914916992,0
0.272616286167745,4.180382251739502,0
0.2804297399584909,4.183098077774048,0
0.2909290684898058,4.185802698135376,0
0.2872665120253936,4.188511848449707,0
0.2743254791844707,4.191247463226318,0
0.2921499206446099,4.193957090377808,0
0.2840922964229031,4.196659326553345,0
0.2831156146990599,4.199402570724487,0
0.2970333292638261,4.202110052108765,0
0.2899523867659626,4.204817771911621,0
0.2750579904773531,4.207525968551636,0
0.2882431937492369,4.210282802581787,0
0.2794530582346477,4.212989330291748,0
0.2728604565987058,4.215698957443237,0
0.2862898303015504,4.218399286270142,0
0.2821389329752166,4.2211387157440186,0
0.2731046270296666,4.22384524345398,0
0.2804297399584909,4.226557970046997,0
0.2731046270296666,4.229324102401733,0
0.268709559272372,4.232039928436279,0
0.2823831034061774,4.234747886657715,0
0.2782322060798436,4.237449645996094,0
0.2657795141008423,4.2401885986328125,0
0.2748138200463923,4.24289083480835,0
0.2757905017702355,4.24559211730957,0
0.2716396044439018,4.2483069896698,0
0.2860456598705896,4.2510528564453125,0
0.2840922964229031,4.2537596225738525,0
0.2770113539250396,4.256469011306763,0
0.276523013063118,4.259182691574097,0
0.276523013063118,4.261926651000977,0
0.2723721157367842,4.264638900756836,0
0.2809180808204126,4.267338514328003,0
0.2794530582346477,4.270068407058716,0
0.2757905017702355,4.272768497467041,0
0.2716396044439018,4.275473833084106,0
0.2782322060798436,4.278177499771118,0
0.272616286167745,4.280919790267944,0
0.2811622512513734,4.283627510070801,0
0.285557319008668,4.286329746246338,0
0.2804297399584909,4.28904128074646,0
0.2699304114271761,4.291770935058594,0
0.276523013063118,4.294469356536865,0
0.2706629227200585,4.297171115875244,0
0.2716396044439018,4.2999107837677,0
0.2801855695275301,4.302619457244873,0
0.2782322060798436,4.305325746536255,0
0.2645586619460383,4.308024168014526,0
0.2753021609083139,4.310829401016235,0
0.2677328775485288,4.313526630401611,0
0.2706629227200585,4.316230773925781,0
0.2821389329752166,4.318934917449951,0
0.2796972286656085,4.3216774463653564,0
0.2672445366866072,4.324384689331055,0
0.2794530582346477,4.327085733413696,0
0.2706629227200585,4.329849720001221,0
0.2704187522890977,4.332555532455444,0
0.2860456598705896,4.335261583328247,0
0.281650592113295,4.337966203689575,0
0.2679770479794896,4.3407065868377686,0
0.276523013063118,4.343414545059204,0
0.2699304114271761,4.346118927001953,0
0.263581980222195,4.348842620849609,0
0.277743865217922,4.351605653762817,0
0.2757905017702355,4.354313611984253,0
0.2652911732389207,4.357018232345581,0
0.2704187522890977,4.359751224517822,0
0.2660236845318031,4.362458944320679,0
0.2626052984983518,4.36515998840332,0
0.2753021609083139,4.367870330810547,0
0.2723721157367842,4.3706042766571045,0
0.2665120253937247,4.373308420181274,0
0.2672445366866072,4.376018762588501,0
0.2655353436698815,4.378725528717041,0
0.2626052984983518,4.381463050842285,0
0.2757905017702355,4.384168148040772,0
0.2743254791844707,4.3868794441223145,0
0.2696862409962153,4.389621734619141,0
0.2660236845318031,4.392316579818726,0
0.2691979001342937,4.395019292831421,0
0.2655353436698815,4.397727966308594,0
0.2738371383225491,4.400471687316895,0
0.2774996947869612,4.403178453445435,0
0.2731046270296666,4.405891180038452,0
0.263581980222195,4.408593416213989,0
0.2718837748748626,4.411330938339233,0
0.2650470028079599,4.414040803909302,0
0.2706629227200585,4.416745901107788,0
0.2801855695275301,4.419478178024292,0
0.2782322060798436,4.422185897827148,0
0.2655353436698815,4.424900531768799,0
0.2762788426321572,4.427606105804443,0
0.2691979001342937,4.430337429046631,0
0.2733487974606274,4.433043241500855,0
0.2833597851300207,4.435747861862183,0
0.2821389329752166,4.43845009803772,0
0.2677328775485288,4.441177606582642,0
0.2779880356488828,4.443887710571289,0
0.2694420705652545,4.446595191955566,0
0.2696862409962153,4.449361562728882,0
0.2860456598705896,4.45207142829895,0
0.2831156146990599,4.454773902893066,0
0.2694420705652545,4.4574737548828125,0
0.2784763765108045,4.460216522216797,0
0.2699304114271761,4.462916612625122,0
0.267488707117568,4.465627670288086,0
0.2831156146990599,4.468329906463623,0
0.2814064216823342,4.471063375473023,0
0.272616286167745,4.47376561164856,0
0.2794530582346477,4.476466178894043,0
0.2757905017702355,4.479164123535156,0
0.2755463313392747,4.481894016265869,0
0.2909290684898058,4.484605073928833,0
0.2889757050421193,4.487620830535889,0
0.2794530582346477,4.490365505218506,0
0.2860456598705896,4.493076324462891,0
0.2823831034061774,4.495780944824219,0
0.2792088878036869,4.498487949371338,0
0.2936149432303747,4.501226186752319,0
0.2911732389207666,4.503946781158447,0
0.282871444268099,4.506797790527344,0
0.2860456598705896,4.510023593902588,0
0.2821389329752166,4.51282811164856,0
0.2794530582346477,4.515601396560669,0
0.2941032840922963,4.518780708312988,0
0.2921499206446099,4.522018671035767,0
0.276523013063118,4.524792909622192,0
0.2889757050421193,4.527541399002075,0
0.281650592113295,4.530628204345703,0
0.2909290684898058,4.533785820007324,0
0.2982541814186301,4.536672115325928,0
0.2948357953851788,4.539828300476074,0
0.2921499206446099,4.542984962463379,0
0.2911732389207666,4.546072483062744,0
0.2872665120253936,4.549161434173584,0
0.3024050787449639,4.552291631698608,0
0.2972774996947869,4.555397033691406,0
0.2811622512513734,4.558494091033936,0
0.286778171163472,4.561710834503174,0
0.2782322060798436,4.5646045207977295,0
0.2882431937492369,4.567774772644043,0
0.2884873641801977,4.570997714996338,0
0.2801855695275301,4.573818922042847,0
0.2850689781467463,4.576860666275024,0
0.2801855695275301,4.579826593399048,0
0.2794530582346477,4.5828492641448975,0
0.2936149432303747,4.585833787918091,0
0.2899523867659626,4.588626146316528,0
0.2745696496154315,4.591842174530029,0
0.2821389329752166,4.594883918762207,0
0.2796972286656085,4.597811222076416,0
0.2875106824563544,4.60066556930542,0
0.2887315346111585,4.603606939315796,0
0.2833597851300207,4.606617450714111,0
0.2843364668538639,4.609774827957153,0
0.2821389329752166,4.612779855728149,0
0.2789647173727261,4.615952968597412,0
0.2960566475399828,4.619064807891846,0
0.2931266023684531,4.622170925140381,0
0.2789647173727261,4.625268220901489,0
0.2879990233182761,4.628381967544556,0
0.2811622512513734,4.631515026092529,0
0.2970333292638261,4.634602308273315,0
0.2963008179709436,4.637508630752564,0
0.2872665120253936,4.640753507614136,0
0.2938591136613355,4.643854141235352,0
0.2850689781467463,4.64671802520752,0
0.2850689781467463,4.649850368499756,0
0.295812477109022,4.652705907821655,0
0.2931266023684531,4.655589580535889,0
0.2794530582346477,4.658745050430298,0
0.2879990233182761,4.661672115325928,0
0.2811622512513734,4.664446115493774,0
0.2911732389207666,4.6676459312438965,0
0.2931266023684531,4.670838117599487,0
0.2843364668538639,4.67362904548645,0
0.2879990233182761,4.67640233039856,0
0.2853131485777072,4.679513216018677,0
0.2831156146990599,4.68261194229126,0
0.2989866927115125,4.685503244400024,0
0.2963008179709436,4.688570022583008,0
0.2796972286656085,4.691797971725464,0
0.2889757050421193,4.694983720779419,0
0.281650592113295,4.698070526123047,0
0.2921499206446099,4.701208114624023,0
0.291905750213649,4.704352140426636,0
0.2814064216823342,4.707390546798706,0
0.2887315346111585,4.7105865478515625,0
0.2804297399584909,4.7134740352630615,0
0.2840922964229031,4.716645002365112,0
0.2975216701257477,4.719841003417969,0
0.2899523867659626,4.722676992416382,0
0.2796972286656085,4.725695610046387,0
0.2872665120253936,4.728571891784668,0
0.2823831034061774,4.731628179550171,0
0.2950799658161396,4.734685182571411,0
0.2928824319374923,4.737482309341431,0
0.2836039555609815,4.74042558670044,0
0.2872665120253936,4.743616819381714,0
0.2811622512513734,4.746650218963623,0
0.277743865217922,4.7494964599609375,0
0.291905750213649,4.752317428588867,0
0.2882431937492369,4.755368232727051,0
0.2718837748748626,4.7585062980651855,0
0.2833597851300207,4.761450529098511,0
0.2774996947869612,4.76451301574707,0
0.2860456598705896,4.767656564712524,0
0.2879990233182761,4.770794630050659,0
0.2789647173727261,4.773893356323242,0
0.2853131485777072,4.7769858837127686,0
0.2782322060798436,4.78014087677002,0
0.2794530582346477,4.783261299133301,0
0.2916615797826882,4.786295652389526,0
0.2892198754730801,4.789438247680664,0
0.2801855695275301,4.792539119720459,0
0.2831156146990599,4.795550584793091,0
0.2772555243560004,4.79856276512146,0
0.291905750213649,4.801504850387573,0
0.2899523867659626,4.804312467575073,0
0.2801855695275301,4.807048082351685,0
0.2860456598705896,4.809858560562134,0
0.2809180808204126,4.812568187713623,0
0.2755463313392747,4.815271377563477,0
0.2889757050421193,4.817978382110596,0
0.2882431937492369,4.82078742980957,0
0.2801855695275301,4.82349705696106,0
0.2809180808204126,4.826202630996704,0
0.2804297399584909,4.828907012939453,0
0.2762788426321572,4.831650257110596,0
0.2889757050421193,4.8343589305877686,0
0.2887315346111585,4.8370630741119385,0
0.2831156146990599,4.839807510375977,0
0.2792088878036869,4.842519521713257,0
0.2826272738371382,4.845221996307373,0
0.2762788426321572,4.847927093505859,0
0.2821389329752166,4.85067081451416,0
0.2860456598705896,4.853392601013184,0
0.2801855695275301,4.856109380722046,0
0.2716396044439018,4.858813524246216,0
0.2794530582346477,4.861567735671997,0
0.2735929678915882,4.8642661571502686,0
0.2784763765108045,4.866970539093018,0
0.2870223415944328,4.86971640586853,0
0.2821389329752166,4.872421503067017,0
0.2689537297033328,4.875128269195557,0
0.2811622512513734,4.877832412719727,0
0.2745696496154315,4.880575180053711,0
0.2750579904773531,4.88328218460083,0
0.2870223415944328,4.885982036590576,0
0.2831156146990599,4.888690710067749,0
0.2677328775485288,4.891504287719727,0
0.2814064216823342,4.894216537475586,0
0.2731046270296666,4.896920680999756,0
0.2716396044439018,4.89965295791626,0
0.2870223415944328,4.902362108230591,0
0.2843364668538639,4.905065059661865,0
0.2706629227200585,4.907768487930298,0
0.281650592113295,4.910515069961548,0
0.2723721157367842,4.913221836090088,0
0.2718837748748626,4.915921211242676,0
0.2872665120253936,4.918621301651001,0
0.2843364668538639,4.921350717544556,0
0.2718837748748626,4.924051523208618,0
0.2792088878036869,4.926759719848633,0
0.2743254791844707,4.929516553878784,0
0.2706629227200585,4.932225227355957,0
0.2833597851300207,4.934922218322754,0
0.2809180808204126,4.9376380443573,0
0.2704187522890977,4.94037675857544,0
0.2735929678915882,4.943079948425293,0
0.2718837748748626,4.945789337158203,0
0.2682212184104504,4.94849419593811,0
0.2809180808204126,4.951267957687378,0
0.2796972286656085,4.953994035720825,0
0.2745696496154315,4.956701517105103,0
0.272616286167745,4.959440231323242,0
0.2755463313392747,4.9621453285217285,0
0.2704187522890977,4.964856386184692,0
0.2811622512513734,4.967564821243286,0
0.2823831034061774,4.970299959182739,0
0.277743865217922,4.9730095863342285,0
0.271395434012941,4.9757184982299805,0
0.2774996947869612,4.978424549102783,0
0.271395434012941,4.981163024902344,0
0.2774996947869612,4.983869791030884,0
0.2833597851300207,4.986890554428101,0
0.2774996947869612,4.989642381668091,0
0.2699304114271761,4.992350816726685,0
0.2762788426321572,4.995057106018066,0
0.2711512635819801,4.997770309448242,0
0.276523013063118,5.000509023666382,0
0.2823831034061774,5.003215789794922,0
0.2792088878036869,5.005926370620728,0
0.2670003662556464,5.008630990982056,0
0.2753021609083139,5.011371374130249,0
0.2684653888414112,5.014072895050049,0
0.2711512635819801,5.016774654388428,0
0.2804297399584909,5.0195136070251465,0
0.2782322060798436,5.022218704223633,0
0.2638261506531558,5.024929046630859,0
0.2772555243560004,5.027640342712402,0
0.2682212184104504,5.030375242233276,0
0.2706629227200585,5.033080339431763,0
0.2831156146990599,5.0357842445373535,0
0.2794530582346477,5.038485050201416,0
0.2655353436698815,5.041226148605347,0
0.276523013063118,5.0439324378967285,0
0.2679770479794896,5.046641826629639,0
0.2667561958246855,5.049395561218262,0
0.2843364668538639,5.0521080493927,0
0.2811622512513734,5.05482029914856,0
0.2694420705652545,5.0575270652771,0
0.277743865217922,5.060274839401245,0
0.2723721157367842,5.062993764877319,0
0.2704187522890977,5.065697431564331,0
0.2848248077157855,5.068403959274292,0
0.2818947625442558,5.071137666702271,0
0.2723721157367842,5.073843955993652,0
0.2753021609083139,5.076559543609619,0
0.2728604565987058,5.079297780990601,0
0.268709559272372,5.082007646560669,0
0.282871444268099,5.084711790084839,0
0.2809180808204126,5.087421417236328,0
0.2753021609083139,5.090166091918945,0
0.2738371383225491,5.092868089675903,0
0.2753021609083139,5.095577955245972,0
0.2716396044439018,5.098283529281616,0
0.2806739103894518,5.101027727127075,0
0.2806739103894518,5.103741407394409,0
0.2753021609083139,5.106448888778687,0
0.2696862409962153,5.109153747558594,0
0.2757905017702355,5.111888885498047,0
0.2694420705652545,5.114601135253906,0
0.2755463313392747,5.117311000823975,0
0.2811622512513734,5.120059490203857,0
0.276523013063118,5.122771501541138,0
0.2672445366866072,5.125483274459839,0
0.2743254791844707,5.128190279006958,0
0.2691979001342937,5.130928993225098,0
0.2716396044439018,5.13363790512085,0
0.2811622512513734,5.136357545852661,0
0.2794530582346477,5.139063119888306,0
0.2652911732389207,5.14179539680481,0
0.2789647173727261,5.144503831863403,0
0.2716396044439018,5.147205352783203,0
0.271395434012941,5.1499412059783936,0
0.2858014894396288,5.152651786804199,0
0.2850689781467463,5.155364990234375,0
0.2716396044439018,5.158070802688599,0
0.282871444268099,5.16081428527832,0
0.2738371383225491,5.163523435592651,0
0.2733487974606274,5.1662373542785645,0
0.2879990233182761,5.168943643569946,0
0.2853131485777072,5.1717023849487305,0
0.2723721157367842,5.174415111541748,0
0.2821389329752166,5.177122354507446,0
0.2753021609083139,5.179858684539795,0
0.2753021609083139,5.182569742202759,0
0.2904407276278842,5.185279369354248,0
0.2872665120253936,5.187988042831421,0
0.2762788426321572,5.190728425979614,0
0.2811622512513734,5.193439722061157,0
0.2774996947869612,5.196146965026856,0
0.2782322060798436,5.198854684829712,0
0.2941032840922963,5.201594352722168,0
0.2928824319374923,5.204305648803711,0
0.2877548528873153,5.207008361816406,0
0.2889757050421193,5.209758043289185,0
0.2901965571969234,5.2124621868133545,0
0.2840922964229031,5.215169906616211,0
0.2953241362471004,5.217878818511963,0
0.295812477109022,5.220626831054688,0
0.2911732389207666,5.223333597183228,0
0.2870223415944328,5.226047515869141,0
0.2894640459040409,5.228750228881836,0
0.2848248077157855,5.2314958572387695,0
0.2926382615065315,5.234210729598999,0
0.2950799658161396,5.236916303634644,0
0.2909290684898058,5.239657163619995,0
0.2821389329752166,5.242367744445801,0
0.2892198754730801,5.245072841644287,0
0.2836039555609815,5.247779130935669,0
0.2889757050421193,5.250523090362549,0
0.2960566475399828,5.253235816955566,0
0.2931266023684531,5.255953073501587,0
0.2801855695275301,5.258667945861816,0
0.2884873641801977,5.261425733566284,0
0.281650592113295,5.264136791229248,0
0.2850689781467463,5.2668516635894775,0
0.2948357953851788,5.269601345062256,0
0.294591624954218,5.27231502532959,0
0.2794530582346477,5.275024175643921,0
0.2911732389207666,5.277724742889404,0
0.2833597851300207,5.280473232269287,0
0.2838481259919423,5.283176422119141,0
0.2999633744353558,5.285890340805054,0
0.2994750335734342,5.288600444793701,0
0.2836039555609815,5.291514158248901,0
0.2960566475399828,5.294231653213501,0
0.2870223415944328,5.296978712081909,0
0.285557319008668,5.299727916717529,0
0.3004517152972774,5.302441835403442,0
0.2975216701257477,5.305152654647827,0
0.2831156146990599,5.307860851287842,0
0.2921499206446099,5.310608625411987,0
0.2848248077157855,5.313315153121948,0
0.2838481259919423,5.316016435623169,0
0.299719204004395,5.318725347518921,0
0.2972774996947869,5.32146430015564,0
0.2858014894396288,5.32417631149292,0
0.2914174093517274,5.32688307762146,0
0.2858014894396288,5.329691648483276,0
0.2796972286656085,5.332409620285034,0
0.2931266023684531,5.335118770599365,0
0.2914174093517274,5.337849855422974,0
0.2821389329752166,5.340630292892456,0
0.2872665120253936,5.343347549438477,0
0.2843364668538639,5.3460612297058105,0
0.2814064216823342,5.348762512207031,0
0.2960566475399828,5.351502180099487,0
0.2938591136613355,5.354228496551514,0
0.2877548528873153,5.356954097747803,0
0.2872665120253936,5.359711885452271,0
0.2872665120253936,5.36242151260376,0
0.2826272738371382,5.365127325057983,0
0.2926382615065315,5.367835998535156,0
0.2931266023684531,5.370580196380615,0
0.2882431937492369,5.3732874393463135,0
0.2821389329752166,5.37599515914917,0
0.2882431937492369,5.3787031173706055,0
0.282871444268099,5.381442546844482,0
0.2909290684898058,5.38415002822876,0
0.3016725674520815,5.385849714279175,0
0.2972774996947869,5.387202262878418,0
0.2965449884019044,5.388561248779297,0
0.2889757050421193,5.3899359703063965,0
0.2823831034061774,5.391290187835693,0
0.2923940910755707,5.3926427364349365,0
0.2928824319374923,5.393994092941284,0
0.2928824319374923,5.395350694656372,0
0.2850689781467463,5.396702766418457,0
0.2848248077157855,5.398058652877808,0
0.286778171163472,5.399430751800537,0
0.2975216701257477,5.400785684585571,0
0.2970333292638261,5.402136564254761,0
0.2960566475399828,5.403491497039795,0
0.2980100109876693,5.404842376708984,0
0.290684898058845,5.406198024749756,0
0.2833597851300207,5.407553672790527,0
0.2892198754730801,5.408907413482666,0
0.2950799658161396,5.410291194915772,0
0.2921499206446099,5.411648511886597,0
0.2872665120253936,5.413003921508789,0
0.2870223415944328,5.414355993270874,0
0.2872665120253936,5.415710210800171,0
0.2950799658161396,5.417066335678101,0
0.2992308631424734,5.418421506881714,0
0.2960566475399828,5.419795989990234,0
0.2992308631424734,5.421149730682373,0
0.2931266023684531,5.422503709793091,0
0.285557319008668,5.423857927322388,0
0.2862898303015504,5.425210237503052,0
0.295812477109022,5.426565647125244,0
0.2931266023684531,5.427922487258911,0
0.2889757050421193,5.42929220199585,0
0.2882431937492369,5.430646657943726,0
0.2877548528873153,5.432000637054443,0
0.2941032840922963,5.433351755142212,0
0.3026492491759247,5.434706687927246,0
0.299719204004395,5.436062812805176,0
0.3011842265901598,5.437419652938843,0
0.2987425222805517,5.438774347305298,0
0.2901965571969234,5.440167188644409,0
0.286778171163472,5.441533088684082,0
0.2953241362471004,5.4428911209106445,0
0.2950799658161396,5.444248199462891,0
0.291905750213649,5.44560432434082,0
0.2889757050421193,5.44696307182312,0
0.2892198754730801,5.44831657409668,0
0.2941032840922963,5.449698209762573,0
0.3043584421926504,5.451054096221924,0
0.3033817604688071,5.452408790588379,0
0.3036259308997679,5.453765869140625,0
0.3046026126236112,5.45513129234314,0
0.2967891588328653,5.456495523452759,0
0.2899523867659626,5.457849979400635,0
0.2980100109876693,5.459200143814087,0
0.3016725674520815,5.460576057434082,0
0.2970333292638261,5.461927175521851,0
0.2938591136613355,5.463285684585571,0
0.2933707727994139,5.464639186859131,0
0.2948357953851788,5.465996026992798,0
0.3072884873641801,5.4673497676849365,0
0.3085093395189842,5.468709468841553,0
0.3058234647784152,5.470080375671387,0
0.308753509949945,5.471437454223633,0
0.3016725674520815,5.472789764404297,0
0.2936149432303747,5.47414231300354,0
0.2980100109876693,5.475497722625732,0
0.3038701013307288,5.476854085922241,0
0.3006958857282382,5.478208065032959,0
0.2960566475399828,5.47958254814148,0
0.295812477109022,5.480944871902466,0
0.2965449884019044,5.482303619384766,0
0.3055792943474544,5.483656167984009,0
0.3102185325357098,5.485013723373413,0
0.3058234647784152,5.487099170684815,0
0.3019167378830423,5.489901304244995,0
0.2938591136613355,5.49262285232544,0
0.2987425222805517,5.495340347290039,0
0.2931266023684531,5.498041868209839,0
0.2999633744353558,5.5007829666137695,0
0.3055792943474544,5.5034918785095215,0
0.3006958857282382,5.506202936172485,0
0.2882431937492369,5.508913516998291,0
0.2950799658161396,5.511658191680908,0
0.2875106824563544,5.514364719390869,0
0.2909290684898058,5.517077684402466,0
0.3011842265901598,5.519819736480713,0
0.2977658405567085,5.522533178329468,0
0.2826272738371382,5.525243520736694,0
0.2950799658161396,5.527955293655396,0
0.2870223415944328,5.530723333358765,0
0.285557319008668,5.533432722091675,0
0.2977658405567085,5.536144971847534,0
0.2953241362471004,5.538859605789185,0
0.2804297399584909,5.54163670539856,0
0.2928824319374923,5.544358253479004,0
0.2833597851300207,5.547067403793335,0
0.2836039555609815,5.549812316894531,0
0.2984983518495909,5.552516460418701,0
0.2955683066780612,5.555229663848877,0
0.2811622512513734,5.55794882774353,0
0.2914174093517274,5.56070351600647,0
0.2845806372848247,5.563418626785278,0
0.2848248077157855,5.566128969192505,0
0.2987425222805517,5.56885027885437,0
0.2967891588328653,5.57159948348999,0
0.2850689781467463,5.574337005615234,0
0.291905750213649,5.577070236206055,0
0.2872665120253936,5.579817295074463,0
0.2843364668538639,5.582531452178955,0
0.2987425222805517,5.585243225097656,0
0.295812477109022,5.587957382202148,0
0.2860456598705896,5.590703248977661,0
0.2894640459040409,5.593409299850464,0
0.2882431937492369,5.5961220264434814,0
0.2831156146990599,5.598825454711914,0
0.2970333292638261,5.601567029953003,0
0.2960566475399828,5.604277849197388,0
0.2892198754730801,5.606982469558716,0
0.2877548528873153,5.609724998474121,0
0.2899523867659626,5.6124351024627686,0
0.2850689781467463,5.6151511669158936,0
0.2931266023684531,5.617860317230225,0
0.295812477109022,5.620609045028687,0
0.2894640459040409,5.623322486877441,0
0.2836039555609815,5.626034736633301,0
0.290684898058845,5.628748655319214,0
0.2850689781467463,5.631495475769043,0
0.2926382615065315,5.6342082023620605,0
0.2970333292638261,5.636919260025024,0
0.2931266023684531,5.639663219451904,0
0.2814064216823342,5.6423659324646,0
0.2909290684898058,5.64507794380188,0
0.2845806372848247,5.647786617279053,0
0.2882431937492369,5.650555610656738,0
0.2970333292638261,5.653265476226807,0
0.2960566475399828,5.656019687652588,0
0.2821389329752166,5.658758401870728,0
0.2931266023684531,5.661502361297607,0
0.2853131485777072,5.6642022132873535,0
0.2872665120253936,5.666911363601685,0
0.2999633744353558,5.669667720794678,0
0.2950799658161396,5.672370433807373,0
0.2794530582346477,5.675071716308594,0
0.2933707727994139,5.677781581878662,0
0.2843364668538639,5.680538654327393,0
0.2818947625442558,5.683245897293091,0
0.2980100109876693,5.685953140258789,0
0.2948357953851788,5.688668489456177,0
0.2801855695275301,5.691428661346436,0
0.2901965571969234,5.694136619567871,0
0.2836039555609815,5.696851015090942,0
0.2818947625442558,5.699593782424927,0
0.2972774996947869,5.702308654785156,0
0.2948357953851788,5.705023765563965,0
0.2823831034061774,5.707728862762451,0
0.2889757050421193,5.710482358932495,0
0.2833597851300207,5.713191509246826,0
0.2821389329752166,5.71589469909668,0
0.295812477109022,5.718608617782593,0
0.2926382615065315,5.721349954605103,0
0.2833597851300207,5.724052429199219,0
0.285557319008668,5.726755619049072,0
0.2850689781467463,5.729494571685791,0
0.2804297399584909,5.732215642929077,0
0.2931266023684531,5.734928131103516,0
0.2926382615065315,5.73763918876648,0
0.2872665120253936,5.740401029586792,0
0.2853131485777072,5.743109941482544,0
0.2860456598705896,5.745823860168457,0
0.2801855695275301,5.748535871505737,0
0.2894640459040409,5.751273393630981,0
0.2909290684898058,5.753984928131104,0
0.285557319008668,5.756704330444336,0
0.2794530582346477,5.759462833404541,0
0.2850689781467463,5.76218056678772,0
0.2789647173727261,5.764891862869263,0
0.2843364668538639,5.767603158950806,0
0.2889757050421193,5.770373344421387,0
0.2848248077157855,5.773083686828613,0
0.2735929678915882,5.775785446166992,0
0.2833597851300207,5.778499364852905,0
0.2767671834940788,5.78124213218689,0
0.2801855695275301,5.783958196640015,0
0.2899523867659626,5.786674499511719,0
0.2872665120253936,5.789417743682861,0
0.2733487974606274,5.7921302318573,0
0.2833597851300207,5.794832229614258,0
0.2755463313392747,5.797536611557007,0
0.2757905017702355,5.800278186798096,0
0.2882431937492369,5.802983045578003,0
0.2870223415944328,5.805692672729492,0
0.272616286167745,5.808401823043823,0
0.2811622512513734,5.81114935874939,0
0.2718837748748626,5.813866376876831,0
0.2699304114271761,5.816579818725586,0
0.2848248077157855,5.819311857223511,0
0.2823831034061774,5.822015047073364,0
0.268709559272372,5.824722528457642,0
0.2799413990965693,5.827431201934815,0
0.2735929678915882,5.830174684524536,0
0.2733487974606274,5.832881927490234,0
0.2862898303015504,5.83559250831604,0
0.2843364668538639,5.838300466537476,0
0.2735929678915882,5.841115474700928,0
0.2801855695275301,5.843827486038208,0
0.2755463313392747,5.8465352058410645,0
0.2731046270296666,5.84933614730835,0
0.2889757050421193,5.85205864906311,0
0.2870223415944328,5.854773759841919,0
0.2774996947869612,5.857482671737671,0
0.2806739103894518,5.8602399826049805,0
0.2784763765108045,5.862954378128052,0
0.2755463313392747,5.8656699657440186,0
0.2882431937492369,5.868377447128296,0
0.2860456598705896,5.871123790740967,0
0.2792088878036869,5.873828649520874,0
0.2779880356488828,5.876534223556519,0
0.2784763765108045,5.879263401031494,0
0.2743254791844707,5.8819780349731445,0
0.2860456598705896,5.884678363800049,0
0.2860456598705896,5.887438774108887,0
0.2850689781467463,5.890207767486572,0
0.2811622512513734,5.892920732498169,0
0.2860456598705896,5.895624160766602,0
0.2794530582346477,5.898335695266724,0
0.2894640459040409,5.901073694229126,0
0.294591624954218,5.90377950668335,0
0.2897082163350017,5.906482934951782,0
0.2796972286656085,5.909188508987427,0
0.2889757050421193,5.911927938461304,0
0.281650592113295,5.91463041305542,0
0.2843364668538639,5.91733193397522,0
0.2911732389207666,5.920069217681885,0
0.2894640459040409,5.9227728843688965,0
0.2760346722011964,5.925479173660278,0
0.2892198754730801,5.928179025650024,0
0.2809180808204126,5.930915594100952,0
0.2814064216823342,5.9336113929748535,0
0.2941032840922963,5.936323404312134,0
0.2911732389207666,5.939026594161987,0
0.2757905017702355,5.941762208938599,0
0.2882431937492369,5.944473743438721,0
0.277743865217922,5.94717812538147,0
0.2757905017702355,5.949911594390869,0
0.291905750213649,5.95262336730957,0
0.2892198754730801,5.955327749252319,0
0.2774996947869612,5.958045244216919,0
0.2872665120253936,5.96079158782959,0
0.2811622512513734,5.9635069370269775,0
0.2796972286656085,5.966220378875732,0
0.294591624954218,5.968937397003174,0
0.2916615797826882,5.97168493270874,0
0.2801855695275301,5.974402904510498,0
0.2850689781467463,5.97711181640625,0
0.2814064216823342,5.979844093322754,0
0.2782322060798436,5.982553958892822,0
0.291905750213649,5.9852614402771,0
0.2899523867659626,5.988265752792358,0
0.2801855695275301,5.991015672683716,0
0.2860456598705896,5.993718862533569,0
0.2826272738371382,5.996422052383423,0
0.2804297399584909,5.999122381210327,0
0.294591624954218,6.001863241195679,0
0.2911732389207666,6.004566192626953,0
0.2831156146990599,6.007263898849487,0
0.2823831034061774,6.010024070739746,0
0.281650592113295,6.012722015380859,0
0.2774996947869612,6.015426397323608,0
0.2879990233182761,6.018133878707886,0
0.2882431937492369,6.020872592926025,0
0.2823831034061774,6.023573160171509,0
0.2782322060798436,6.026273488998413,0
0.2833597851300207,6.028977155685425,0
0.2770113539250396,6.031720161437988,0
0.2831156146990599,6.034426927566528,0
0.2909290684898058,6.037125587463379,0
0.2831156146990599,6.039861917495728,0
0.2728604565987058,6.042573690414429,0
0.282871444268099,6.045278072357178,0
0.2755463313392747,6.047983884811401,0
0.2792088878036869,6.050726175308228,0
0.2872665120253936,6.053429841995239,0
0.2843364668538639,6.056130170822144,0
0.2706629227200585,6.058837890625,0
0.2848248077157855,6.06158447265625,0
0.276523013063118,6.064290761947632,0
0.2762788426321572,6.066991567611694,0
0.2889757050421193,6.06973123550415,0
0.286778171163472,6.072437286376953,0
0.2716396044439018,6.07514762878418,0
0.2848248077157855,6.077857494354248,0
0.2753021609083139,6.080606460571289,0
0.2753021609083139,6.08331823348999,0
0.2928824319374923,6.08602786064148,0
0.2889757050421193,6.08873724937439,0
0.2757905017702355,6.091475009918213,0
0.2850689781467463,6.094182014465332,0
0.2789647173727261,6.0968897342681885,0
0.2753021609083139,6.099632501602173,0
0.2894640459040409,6.102336168289185,0
0.2870223415944328,6.105047464370728,0
0.2753021609083139,6.10775089263916,0
0.2811622512513734,6.110489845275879,0
0.2774996947869612,6.113197088241577,0
0.2743254791844707,6.115904808044434,0
0.2892198754730801,6.11860466003418,0
0.2860456598705896,6.121350288391113,0
0.2792088878036869,6.124058485031128,0
0.2809180808204126,6.126767158508301,0
0.2811622512513734,6.129528284072876,0
0.2757905017702355,6.132240295410156,0
0.286778171163472,6.134945154190064,0
0.2862898303015504,6.137651920318604,0
0.2782322060798436,6.14038872718811,0
0.2757905017702355,6.143094539642334,0
0.2801855695275301,6.145801305770874,0
0.2743254791844707,6.1485114097595215,0
0.2833597851300207,6.15124773979187,0
0.2882431937492369,6.153952598571777,0
0.2848248077157855,6.156660795211792,0
0.2753021609083139,6.159419775009155,0
0.2840922964229031,6.162129878997803,0
0.2774996947869612,6.164830207824707,0
0.2811622512513734,6.1675355434417725,0
0.2887315346111585,6.170277118682861,0
0.2872665120253936,6.172989845275879,0
0.2750579904773531,6.175699472427368,0
0.2860456598705896,6.178406715393066,0
0.277743865217922,6.181138038635254,0
0.2789647173727261,6.183843612670898,0
0.2909290684898058,6.186550140380859,0
0.2865340007325112,6.189288139343262,0
0.2716396044439018,6.191997289657593,0
0.2860456598705896,6.194711208343506,0
0.2772555243560004,6.197424173355103,0
0.276523013063118,6.200161695480347,0
0.2943474545232571,6.202871084213257,0
0.2892198754730801,6.205575227737427,0
0.2750579904773531,6.208280801773071,0
0.2870223415944328,6.2110209465026855,0
0.2784763765108045,6.213728904724121,0
0.2774996947869612,6.216439723968506,0
0.2926382615065315,6.2191431522369385,0
0.2889757050421193,6.221878290176392,0
0.277743865217922,6.224583387374878,0
0.2843364668538639,6.227283954620361,0
0.2804297399584909,6.230025053024292,0
0.2762788426321572,6.232756614685059,0
0.2901965571969234,6.235467433929443,0
0.2860456598705896,6.238173484802246,0
0.276523013063118,6.240912914276123,0
0.2804297399584909,6.243618726730347,0
0.2787205469417653,6.24632453918457,0
0.2728604565987058,6.249027967453003,0
0.2860456598705896,6.251779317855835,0
0.2848248077157855,6.254480600357056,0
0.2774996947869612,6.257191181182861,0
0.2750579904773531,6.25993013381958,0
0.2784763765108045,6.262638330459595,0
0.272616286167745,6.265344858169556,0
0.2831156146990599,6.268046140670776,0
0.2853131485777072,6.270786046981812,0
0.281650592113295,6.273487567901611,0
0.2755463313392747,6.276197910308838,0
0.2804297399584909,6.278909206390381,0
0.2753021609083139,6.281651735305786,0
0.282871444268099,6.284355640411377,0
0.2865340007325112,6.287063121795654,0
0.2840922964229031,6.289802074432373,0
0.2723721157367842,6.292505741119385,0
0.2831156146990599,6.295215845108032,0
0.2757905017702355,6.297917366027832,0
0.2784763765108045,6.300654888153076,0
0.2897082163350017,6.30336332321167,0
0.2870223415944328,6.306067943572998,0
0.2716396044439018,6.308762788772583,0
0.2853131485777072,6.311504125595093,0
0.2760346722011964,6.314206600189209,0
0.2750579904773531,6.316911697387695,0
0.2894640459040409,6.319644451141357,0
0.2872665120253936,6.322345972061157,0
0.2735929678915882,6.325053453445435,0
0.2843364668538639,6.32775354385376,0
0.2760346722011964,6.3304948806762695,0
0.2745696496154315,6.333207607269287,0
0.290684898058845,6.335920095443726,0
0.2875106824563544,6.338625192642212,0
0.2762788426321572,6.341364860534668,0
0.2831156146990599,6.34406852722168,0
0.2770113539250396,6.346776247024536,0
0.2743254791844707,6.349580526351929,0
0.2892198754730801,6.35228419303894,0
0.2862898303015504,6.354992389678955,0
0.2782322060798436,6.357699632644653,0
0.2821389329752166,6.3604512214660645,0
0.2804297399584909,6.3631672859191895,0
0.2745696496154315,6.365869045257568,0
0.2865340007325112,6.368571758270264,0
0.2843364668538639,6.371339559555054,0
0.2772555243560004,6.37404727935791,0
0.2772555243560004,6.376752138137817,0
0.2792088878036869,6.379490613937378,0
0.2738371383225491,6.382198333740234,0
0.2833597851300207,6.384900569915772,0
0.2845806372848247,6.387603759765625,0
0.2784763765108045,6.39033842086792,0
0.272616286167745,6.3930394649505615,0
0.2782322060798436,6.395745754241943,0
0.2718837748748626,6.398449420928955,0
0.2772555243560004,6.401188850402832,0
0.2814064216823342,6.403889179229736,0
0.276523013063118,6.406593322753906,0
0.2660236845318031,6.409412145614624,0
0.276523013063118,6.412123918533325,0
0.2694420705652545,6.414834499359131,0
0.2723721157367842,6.4175403118133545,0
0.2840922964229031,6.420273065567017,0
0.2784763765108045,6.422986507415772,0
0.2660236845318031,6.425694227218628,0
0.2760346722011964,6.428403854370117,0
0.2684653888414112,6.431140661239624,0
0.2689537297033328,6.433851003646851,0
0.2823831034061774,6.436551570892334,0
0.2794530582346477,6.439275741577148,0
0.2655353436698815,6.441987276077271,0
0.2784763765108045,6.444690465927124,0
0.2704187522890977,6.447396993637085,0
0.2709070931510193,6.450138330459595,0
0.2889757050421193,6.452848196029663,0
0.2853131485777072,6.455546379089356,0
0.2733487974606274,6.458251953125,0
0.2821389329752166,6.460995197296143,0
0.2755463313392747,6.463706016540527,0
0.2731046270296666,6.466410160064697,0
0.2872665120253936,6.469112873077393,0
0.2836039555609815,6.471851825714111,0
0.2721279453058234,6.474559545516968,0
0.2782322060798436,6.477264165878296,0
0.2753021609083139,6.480003833770752,0
0.2718837748748626,6.482706069946289,0
0.2850689781467463,6.485410690307617,0
0.2836039555609815,6.48841118812561,0
0.2735929678915882,6.491180658340454,0
0.2782322060798436,6.493885278701782,0
0.2755463313392747,6.496594190597534,0
0.2716396044439018,6.499322175979614,0
0.2848248077157855,6.50203275680542,0
0.2831156146990599,6.504736661911011,0
0.2757905017702355,6.507446527481079,0
0.2757905017702355,6.510183811187744,0
0.276523013063118,6.512888669967651,0
0.2711512635819801,6.515591382980347,0
0.2811622512513734,6.518301248550415,0
0.281650592113295,6.521036624908447,0
0.2757905017702355,6.5237462520599365,0
0.2704187522890977,6.526451110839844,0
0.2750579904773531,6.529155731201172,0
0.2691979001342937,6.531891107559204,0
0.2770113539250396,6.534598112106323,0
0.2821389329752166,6.537302732467651,0
0.2770113539250396,6.540039777755737,0
0.2704187522890977,6.542750597000122,0
0.2804297399584909,6.545461416244507,0
0.2750579904773531,6.548164129257202,0
0.2772555243560004,6.55090594291687,0
0.286778171163472,6.553609848022461,0
0.2833597851300207,6.55630898475647,0
0.2696862409962153,6.559004068374634,0
0.2818947625442558,6.561748504638672,0
0.2735929678915882,6.564455986022949,0
0.2772555243560004,6.567165613174439,0
0.2879990233182761,6.569906711578369,0
0.286778171163472,6.572614192962647,0
0.2723721157367842,6.575319528579712,0
0.2843364668538639,6.578057289123535,0
0.2753021609083139,6.580807209014893,0
0.2753021609083139,6.583515644073486,0
0.2909290684898058,6.586220264434815,0
0.2872665120253936,6.588923931121826,0
0.2735929678915882,6.59165358543396,0
0.2821389329752166,6.594357252120972,0
0.2753021609083139,6.597064018249512,0
0.2745696496154315,6.599804401397705,0
0.2875106824563544,6.602511405944824,0
0.285557319008668,6.605209589004517,0
0.2755463313392747,6.607913732528687,0
0.2814064216823342,6.610669851303101,0
0.2784763765108045,6.613376140594482,0
0.2753021609083139,6.616090536117554,0
0.2889757050421193,6.618801116943359,0
0.2872665120253936,6.621537446975708,0
0.2796972286656085,6.624251365661621,0
0.2811622512513734,6.626961946487427,0
0.2804297399584909,6.6297032833099365,0
0.2762788426321572,6.63241720199585,0
0.2870223415944328,6.635124206542969,0
0.2853131485777072,6.637828350067139,0
0.281650592113295,6.640561580657959,0
0.2774996947869612,6.6432647705078125,0
0.2814064216823342,6.64596152305603,0
0.2753021609083139,6.648669481277466,0
0.2843364668538639,6.651403188705444,0
0.2882431937492369,6.654112339019775,0
0.2836039555609815,6.656810283660889,0
0.2743254791844707,6.659544944763184,0
0.2831156146990599,6.662250518798828,0
0.2770113539250396,6.66496467590332,0
0.2811622512513734,6.667674541473389,0
0.2889757050421193,6.670427083969116,0
0.2865340007325112,6.67313551902771,0
0.2733487974606274,6.675843238830566,0
0.2850689781467463,6.678546905517578,0
0.2772555243560004,6.681301832199097,0
0.2789647173727261,6.684009313583374,0
0.2911732389207666,6.686720609664917,0
0.2872665120253936,6.689462423324585,0
0.2711512635819801,6.692173719406128,0
0.2843364668538639,6.694883823394775,0
0.2755463313392747,6.697590112686157,0
0.2753021609083139,6.700329542160034,0
0.2909290684898058,6.703043222427368,0
0.2872665120253936,6.70575213432312,0
0.2743254791844707,6.7084596157073975,0
0.2850689781467463,6.711200475692749,0
0.2782322060798436,6.713916063308716,0
0.2774996947869612,6.716619253158569,0
0.2938591136613355,6.719352960586548,0
0.2892198754730801,6.722057342529297,0
0.2772555243560004,6.724771499633789,0
0.282871444268099,6.727471351623535,0
0.2784763765108045,6.730232238769531,0
0.2755463313392747,6.732943058013916,0
0.2889757050421193,6.735662221908569,0
0.2865340007325112,6.738370895385742,0
0.2792088878036869,6.7411181926727295,0
0.2831156146990599,6.743820667266846,0
0.2811622512513734,6.746531963348389,0
0.2774996947869612,6.749264240264893,0
0.2887315346111585,6.751978158950806,0
0.2872665120253936,6.754683494567871,0
0.2809180808204126,6.757388591766357,0
0.2782322060798436,6.760128736495972,0
0.2796972286656085,6.7628443241119385,0
0.2770113539250396,6.765555381774902,0
0.2850689781467463,6.76826286315918,0
0.2860456598705896,6.771000623703003,0
0.2836039555609815,6.773704051971436,0
0.276523013063118,6.776409864425659,0
0.2843364668538639,6.779115438461304,0
0.2789647173727261,6.781942844390869,0
0.2840922964229031,6.784650564193726,0
0.2892198754730801,6.787350177764893,0
0.2850689781467463,6.790086984634399,0
0.2743254791844707,6.792790174484253,0
0.2833597851300207,6.795492649078369,0
0.2753021609083139,6.798193693161011,0
0.2789647173727261,6.8009302616119385,0
0.2899523867659626,6.803633689880371,0
0.2875106824563544,6.806341409683228,0
0.2733487974606274,6.809051513671875,0
0.2872665120253936,6.811789035797119,0
0.2794530582346477,6.814488649368286,0
0.2792088878036869,6.817201137542725,0
0.2950799658161396,6.819945573806763,0
0.2889757050421193,6.82265830039978,0
0.2738371383225491,6.8253583908081055,0
0.2850689781467463,6.828069448471069,0
0.2753021609083139,6.830807685852051,0
0.2745696496154315,6.8335120677948,0
0.290684898058845,6.836216926574707,0
0.2872665120253936,6.838924646377564,0
0.2735929678915882,6.841660022735596,0
0.2836039555609815,6.844367504119873,0
0.2774996947869612,6.8470659255981445,0
0.2750579904773531,6.849829912185669,0
0.2875106824563544,6.852536678314209,0
0.2850689781467463,6.855244398117065,0
0.2750579904773531,6.857951641082764,0
0.2792088878036869,6.86076021194458,0
0.2745696496154315,6.863478899002075,0
0.2704187522890977,6.866190433502197,0
0.2845806372848247,6.8688952922821045,0
0.2826272738371382,6.871640205383301,0
0.2743254791844707,6.874342679977417,0
0.276523013063118,6.877051830291748,0
0.2772555243560004,6.87978982925415,0
0.272616286167745,6.882498264312744,0
0.2840922964229031,6.885207653045654,0
0.2836039555609815,6.887914419174194,0
0.2774996947869612,6.890718936920166,0
0.272616286167745,6.893424987792969,0
0.276523013063118,6.896132707595825,0
0.2706629227200585,6.898837804794312,0
0.2782322060798436,6.901584625244141,0
0.2804297399584909,6.904296398162842,0
0.277743865217922,6.907005548477173,0
0.2696862409962153,6.9097442626953125,0
0.2782322060798436,6.91245436668396,0
0.2721279453058234,6.9151647090911865,0
0.2774996947869612,6.917871713638306,0
0.2831156146990599,6.92061448097229,0
0.2811622512513734,6.923365592956543,0
0.2694420705652545,6.926079750061035,0
0.2811622512513734,6.92879843711853,0
0.2735929678915882,6.931549787521362,0
0.276523013063118,6.934263467788696,0
0.2892198754730801,6.936967134475708,0
0.2860456598705896,6.93972110748291,0
0.2716396044439018,6.942430019378662,0
0.2850689781467463,6.945133447647095,0
0.2770113539250396,6.947848320007324,0
0.2770113539250396,6.9505884647369385,0
0.2914174093517274,6.953301429748535,0
0.2875106824563544,6.956008672714233,0
0.2728604565987058,6.958724021911621,0
0.2843364668538639,6.961463928222656,0
0.2760346722011964,6.964184522628784,0
0.2743254791844707,6.966900587081909,0
0.2899523867659626,6.969681024551392,0
0.2875106824563544,6.972395658493042,0
0.2755463313392747,6.975099086761475,0
0.2845806372848247,6.977810859680176,0
0.2792088878036869,6.980560541152954,0
0.2760346722011964,6.983277082443237,0
0.2899523867659626,6.986277341842651,0
0.2884873641801977,6.989003419876099,0
0.2753021609083139,6.99175500869751,0
0.2840922964229031,6.9944727420806885,0
0.2772555243560004,6.997190237045288,0
0.2753021609083139,6.999935150146484,0
0.2904407276278842,7.002655506134033,0
0.2889757050421193,7.005438566207886,0
0.2782322060798436,7.008150815963745,0
0.2843364668538639,7.010887384414673,0
0.2801855695275301,7.013603448867798,0
0.2774996947869612,7.016310691833496,0
0.2911732389207666,7.019021272659302,0
0.2892198754730801,7.021760940551758,0
0.2814064216823342,7.02446985244751,0
0.2796972286656085,7.027175426483154,0
0.2755463313392747,7.029925346374512,0
0.2652911732389207,7.032636404037476,0
0.2716396044439018,7.035351276397705,0
0.2704187522890977,7.038055181503296,0
0.268709559272372,7.040808439254761,0
0.2672445366866072,7.043521881103516,0
0.2694420705652545,7.046237230300903,0
0.2652911732389207,7.048951625823975,0
0.2735929678915882,7.051693916320801,0
0.276523013063118,7.0544044971466064,0
0.2738371383225491,7.05711030960083,0
0.2652911732389207,7.059858560562134,0
0.2711512635819801,7.0625715255737305,0
0.2665120253937247,7.065284729003906,0
0.2731046270296666,7.068007469177246,0
0.2804297399584909,7.070766448974609,0
0.276523013063118,7.07348108291626,0
0.2657795141008423,7.07618260383606,0
0.2733487974606274,7.078896045684815,0
0.2694420705652545,7.081642150878906,0
0.2652911732389207,7.084355592727661,0
0.2784763765108045,7.087063789367676,0
0.2704187522890977,7.089837551116943,0
0.2560126968624099,7.092544078826904,0
0.2809180808204126,7.095267057418823,0
0.2735929678915882,7.09796953201294,0
0.2694420705652545,7.100713014602661,0
0.2814064216823342,7.10341739654541,0
0.2809180808204126,7.106138706207275,0
0.2679770479794896,7.108848333358765,0
0.2831156146990599,7.111593008041382,1
0.2753021609083139,7.114308595657349,1
0.2738371383225491,7.117023229598999,1
0.2894640459040409,7.119764566421509,1
0.2862898303015504,7.122472763061523,1
0.2728604565987058,7.125186920166016,1
0.2784763765108045,7.1278932094573975,1
0.2704187522890977,7.130634546279907,1
0.2684653888414112,7.133344411849976,1
0.2872665120253936,7.136049270629883,1
0.2879990233182761,7.138765573501587,1
0.2794530582346477,7.141515016555786,1
0.285557319008668,7.144228219985962,1
0.2833597851300207,7.146933078765869,1
0.2875106824563544,7.1496875286102295,1
0.3126602368453179,7.15239691734314,1
0.3136369185691612,7.155108690261841,1
0.3126602368453179,7.157811403274536,1
0.3133927481382004,7.160556793212891,1
0.3180319863264558,7.163268566131592,1
0.3104627029666706,7.165998935699463,1
0.3216945427908679,7.168721914291382,1
0.3192528384812598,7.171482801437378,1
0.3136369185691612,7.1741862297058105,1
0.3094860212428274,7.176905632019043,1
0.3114393846905139,7.179657459259033,1
0.3006958857282382,7.182371139526367,1
0.3031375900378463,7.185086965560913,1
0.3043584421926504,7.187803745269775,1
0.2999633744353558,7.190546274185181,1
0.2909290684898058,7.193256855010986,1
0.2862898303015504,7.195964336395264,1
0.2770113539250396,7.198686599731445,1
0.2735929678915882,7.201429605484009,1
0.276523013063118,7.204148769378662,1
0.272616286167745,7.206862211227417,1
0.2638261506531558,7.209625244140625,1
0.2784763765108045,7.2123401165008545,1
0.2691979001342937,7.2150492668151855,1
0.2711512635819801,7.217760324478149,1
0.2809180808204126,7.22050142288208,1
0.2821389329752166,7.223212718963623,1
0.2696862409962153,7.225919961929321,1
0.2811622512513734,7.228639125823975,1
0.2721279453058234,7.231382369995117,1
0.2716396044439018,7.2340991497039795,1
0.2840922964229031,7.236809968948364,1
0.282871444268099,7.239550828933716,1
0.2694420705652545,7.242263078689575,1
0.2821389329752166,7.244971036911011,1
0.2762788426321572,7.2476806640625,1
0.285557319008668,7.250423192977905,1
0.2916615797826882,7.253145456314087,1
0.2889757050421193,7.255854845046997,1
0.2753021609083139,7.258561849594116,1
0.2853131485777072,7.26130223274231,1
0.2796972286656085,7.264009714126587,1
0.2843364668538639,7.266730785369873,1
0.3046026126236112,7.2695229053497314,1
0.3038701013307288,7.272242546081543,1
0.2948357953851788,7.274965763092041,1
0.3046026126236112,7.277680158615112,1
0.3055792943474544,7.280425548553467,1
0.3026492491759247,7.283133029937744,1
0.3155902820168477,7.285841941833496,1
0.3109510438285923,7.288553476333618,1
0.3094860212428274,7.291295289993286,1
0.308753509949945,7.294013261795044,1
0.3070443169332193,7.296722650527954,1
0.2984983518495909,7.299466609954834,1
0.3116835551214747,7.302185773849487,1
0.3116835551214747,7.304901599884033,1
0.2984983518495909,7.3076136112213135,1
0.3026492491759247,7.310357332229614,1
0.3104627029666706,7.313083410263061,1
0.3065559760712977,7.315795660018921,1
0.3133927481382004,7.318512678146362,1
0.3107068733976315,7.321251153945923,1
0.3016725674520815,7.323961734771728,1
0.299719204004395,7.326674461364746,1
0.308753509949945,7.329432725906372,1
0.3016725674520815,7.332151651382446,1
0.3124160664143571,7.334869384765625,1
0.3209620314979855,7.337576627731323,1
0.3273104627029666,7.340319395065308,1
0.3146136002930044,7.34302544593811,1
0.3243804175314368,7.345730781555176,1
0.3146136002930044,7.348439693450928,1
0.3153461115858869,7.351189851760864,1
0.3312171895983395,7.353893756866455,1
0.3246245879623977,7.35659909248352,1
0.3153461115858869,7.359341621398926,1
0.3234037358075936,7.362056016921997,1
0.3111952142595531,7.364769458770752,1
0.3050909534855328,7.367498159408569,1
0.3212062019289463,7.370456695556641,1
0.3160786228787693,7.373175382614136,1
0.315101941154926,7.375878572463989,1
0.3351239164937125,7.378587245941162,1
0.3258454401172017,7.381334066390991,1
0.328042973995849,7.3840491771698,1
0.3465999267488706,7.386756658554077,1
0.3380539616652422,7.389497518539429,1
0.3226712245147112,7.392197847366333,1
0.3439140520083017,7.394907236099243,1
0.3329263826150652,7.397615432739258,1
0.3234037358075936,7.40036153793335,1
0.3302405078744963,7.403070449829102,1
0.3207178610670247,7.405778646469116,1
0.3085093395189842,7.4084978103637695,1
0.3185203271883774,7.4112372398376465,1
0.3172994750335733,7.41394829750061,1
0.3094860212428274,7.416661500930786,1
0.3224270540837504,7.419400453567505,1
0.3185203271883774,7.422107934951782,1
0.3185203271883774,7.424810409545898,1
0.324136247100476,7.427523136138916,1
0.3397631546819679,7.430263042449951,1
0.3297521670125747,7.432967901229858,1
0.3361005982175558,7.435671091079712,1
0.3329263826150652,7.438381433486938,1
0.3273104627029666,7.441120862960815,1
0.3204736906360639,7.443825960159302,1
0.3089976803809058,7.446527004241943,1
0.3026492491759247,7.4492340087890625,1
0.3006958857282382,7.4519970417022705,1
0.2984983518495909,7.454716920852661,1
0.2941032840922963,7.457420349121094,1
0.2899523867659626,7.460162401199341,1
0.2853131485777072,7.462863445281982,1
0.2733487974606274,7.465574741363525,1
0.2677328775485288,7.468294858932495,1
0.2655353436698815,7.47105598449707,1
0.267488707117568,7.473770618438721,1
0.2569893785862531,7.476479530334473,1
0.2616286167745085,7.4791858196258545,1
0.2521059699670369,7.481921672821045,1
0.2543035038456842,7.484623670578003,1
0.2691979001342937,7.4876415729522705,1
0.272616286167745,7.490396499633789,1
0.2672445366866072,7.493111133575439,1
0.2740813087535099,7.49581503868103,1
0.2723721157367842,7.498527765274048,1
0.2667561958246855,7.501274347305298,1
0.2718837748748626,7.5040576457977295,1
0.2743254791844707,7.506957054138184,1
0.2660236845318031,7.51018762588501,1
0.2757905017702355,7.512990713119507,1
0.2696862409962153,7.515759229660034,1
0.2818947625442558,7.518928527832031,1
0.2858014894396288,7.522156953811645,1
0.2794530582346477,7.525045871734619,1
0.2850689781467463,7.527823209762573,1
0.2804297399584909,7.530891418457031,1
0.2916615797826882,7.53394079208374,1
0.3053351239164936,7.536911725997925,1
0.3163227933097301,7.5401012897491455,1
0.3082651690880233,7.543251037597656,1
0.3172994750335733,7.54646897315979,1
0.3082651690880233,7.549691200256348,1
0.3246245879623977,7.552652597427368,1
0.3224270540837504,7.555753946304321,1
0.3107068733976315,7.55885124206543,1
0.3209620314979855,7.56207013130188,1
0.3107068733976315,7.564946413040161,1
0.3121718959833963,7.568143606185913,1
0.3192528384812598,7.571370601654053,1
0.3155902820168477,7.574228048324585,1
0.3109510438285923,7.577297449111938,1
0.3107068733976315,7.58025860786438,1
0.3092418508118666,7.583235025405884,1
0.3263337809791233,7.586299180984497,1
0.3238920766695152,7.589089870452881,1
0.3163227933097301,7.591942310333252,1
0.3251129288243193,7.595218181610107,1
0.3175436454645342,7.598302602767944,1
0.3361005982175558,7.601160049438477,1
0.3478207789036747,7.60392689704895,1
0.3475766084727139,7.606928110122681,1
0.3365889390794774,7.610128402709961,1
0.3402514955438895,7.613051414489746,1
0.3375656208033206,7.616133451461792,1
0.3436698815773409,7.619432687759399,1
0.3397631546819679,7.62254524230957,1
0.3260896105481625,7.625652551651001,1
0.3299963374435355,7.628777265548706,1
0.3180319863264558,7.63195013999939,1
0.3207178610670247,7.635026454925537,1
0.3253570992552801,7.638108491897583,1
0.317787815895495,7.641149997711182,1
0.3148577707239652,7.644274473190308,1
0.308753509949945,7.64738392829895,1
0.308753509949945,7.650331974029541,1
0.3336588939079477,7.653344392776489,1
0.3260896105481625,7.656213998794556,1
0.3077768282261017,7.65935492515564,1
0.3346355756317909,7.662246942520142,1
0.3260896105481625,7.665030241012573,1
0.3304846783054571,7.668233633041382,1
0.3419606885606152,7.671410799026489,1
0.3297521670125747,7.674278974533081,1
0.3243804175314368,7.677031517028809,1
0.3263337809791233,7.680028200149536,1
0.3202295202051031,7.683068990707397,1
0.3382981320962031,7.686139822006226,1
0.3382981320962031,7.689181566238403,1
0.3265779514100841,7.692409992218018,1
0.3299963374435355,7.695563793182373,1
0.3221828836527896,7.698696613311768,1
0.3263337809791233,7.701817989349365,1
0.3290196557196922,7.7049455642700195,1
0.3224270540837504,7.708016872406006,1
0.3219387132218287,7.711216926574707,1
0.3168111341716517,7.714104890823364,1
0.3204736906360639,7.717291116714477,1
0.3378097912342814,7.720473527908325,1
0.3348797460627517,7.723320722579956,1
0.324136247100476,7.726382732391357,1
0.3361005982175558,7.729316473007202,1
0.3282871444268098,7.732300519943237,1
0.3429373702844585,7.735376596450806,1
0.3441582224392625,7.738170385360718,1
0.346111585886949,7.741079568862915,1
0.346111585886949,7.744285821914673,1
0.3446465633011841,7.747353553771973,1
0.3578317665730679,7.750220060348511,1
0.3719936515687949,7.753013849258423,1
0.3722378219997557,7.75606632232666,1
0.359052618727872,7.759197473526001,1
0.3773654010499327,7.762282848358154,1
0.3688194359663044,7.765377759933472,1
0.3661335612257355,7.768474340438843,1
0.3690636063972652,7.771644592285156,1
0.3585642778659503,7.774767160415649,1
0.3534366988157733,7.777867794036865,1
0.3439140520083017,7.7810447216033936,1
0.324136247100476,7.784131765365601,1
0.3358564277865949,7.787201166152954,1
0.3339030643389085,7.790318965911865,1
0.3204736906360639,7.793380737304687,1
0.3199853497741423,7.796442985534668,1
0.3163227933097301,7.799450397491455,1
0.3238920766695152,7.80237078666687,1
0.3221828836527896,7.805180788040161,1
0.3202295202051031,7.8079304695129395,1
0.3260896105481625,7.810750007629394,1
0.3248687583933585,7.81346869468689,1
0.3297521670125747,7.8161773681640625,1
0.3419606885606152,7.818882703781128,1
0.3441582224392625,7.821640014648437,1
0.3436698815773409,7.824359655380249,1
0.346111585886949,7.827064037322998,1
0.3480649493346355,7.829808235168457,1
0.3483091197655963,7.8325111865997314,1
0.3573434257111463,7.835217952728271,1
0.3578317665730679,7.837924957275391,1
0.347332438041753,7.840668678283691,1
0.3390306433890855,7.843371868133545,1
0.3585642778659503,7.846085071563721,1
0.3514833353680868,7.84879469871521,1
0.355145891832499,7.851605653762817,1
0.3663777316566963,7.854308843612671,1
0.3632035160542057,7.857026100158691,1
0.3553900622634598,7.85977292060852,1
0.3690636063972652,7.862473726272583,1
0.3624710047613233,7.865175247192383,1
0.369307776828226,7.86788010597229,1
0.3766328897570503,7.870627164840698,1
0.3719936515687949,7.873343467712402,1
0.3546575509705774,7.876048564910889,1
0.3588084482969111,7.878756523132324,1
0.347332438041753,7.881577968597412,1
0.3378097912342814,7.884284973144531,1
0.3465999267488706,7.886990547180176,1
0.3456232450250274,7.88975191116333,1
0.3299963374435355,7.892458200454712,1
0.3407398364058112,7.895163536071777,1
0.3312171895983395,7.8978636264801025,1
0.3358564277865949,7.900611162185669,1
0.3575875961421071,7.9033203125,1
0.3519716762300084,7.906018972396851,1
0.3400073251129287,7.908721685409546,1
0.3534366988157733,7.911466360092163,1
0.3446465633011841,7.914170265197754,1
0.3485532901965571,7.916877746582031,1
0.3634476864851665,7.919626712799072,1
0.3580759370040287,7.922333002090454,1
0.3539250396776949,7.925037145614624,1
0.3605176413136368,7.927742958068848,1
0.3546575509705774,7.930511474609375,1
0.3492858014894395,7.933218479156494,1
0.3536808692467341,7.935922145843506,1
0.3475766084727139,7.938631534576416,1
0.3363447686485166,7.941373586654663,1
0.3351239164937125,7.944076776504517,1
0.3363447686485166,7.946789503097534,1
0.3407398364058112,7.949536323547363,1
0.3429373702844585,7.952244997024536,1
0.340984006836772,7.9549500942230225,1
0.3414723476986936,7.957654237747192,1
0.3356122573556341,7.960394620895386,1
0.3402514955438895,7.9631006717681885,1
0.3290196557196922,7.965815782546997,1
0.337077279941399,7.968525648117065,1
0.3414723476986936,7.971278429031372,1
0.3329263826150652,7.973989725112915,1
0.3265779514100841,7.976694107055664,1
0.3378097912342814,7.979439496994018,1
0.3243804175314368,7.982142448425293,1
0.3163227933097301,7.984848499298096,1
0.3263337809791233,7.987855434417725,1
0.3182761567574166,7.990597009658813,1
0.3068001465022585,7.993345260620117,1
0.3124160664143571,7.996061325073242,1
0.3038701013307288,7.99877142906189,1
0.3063118056403369,8.001510620117188,1
0.3136369185691612,8.004207611083984,1
0.3172994750335733,8.006908893585205,1
0.3050909534855328,8.009655714035034,1
0.3126602368453179,8.012354850769043,1
0.3036259308997679,8.015064716339111,1
0.3038701013307288,8.017770290374756,1
0.3207178610670247,8.020508766174316,1
0.3107068733976315,8.02321743965149,1
0.2977658405567085,8.025924921035767,1
0.3180319863264558,8.028631448745728,1
0.3085093395189842,8.03137755393982,1
0.3019167378830423,8.03408169746399,1
0.3089976803809058,8.036789655685425,1
0.3038701013307288,8.039522409439087,1
0.2892198754730801,8.042223453521729,1
0.2984983518495909,8.044932126998901,1
0.291905750213649,8.047638177871704,1
0.2926382615065315,8.05039930343628,1
0.3019167378830423,8.053107738494873,1
0.2992308631424734,8.05581283569336,1
0.2875106824563544,8.058527946472168,1
0.2926382615065315,8.061267614364624,1
0.2875106824563544,8.063977718353271,1
0.2870223415944328,8.066683769226074,1
0.3038701013307288,8.069421291351318,1
0.3019167378830423,8.072139263153076,1
0.2987425222805517,8.07484245300293,1
0.3006958857282382,8.077547550201416,1
0.2989866927115125,8.08029317855835,1
0.2972774996947869,8.082998752593994,1
0.3077768282261017,8.085706233978271,1
0.3063118056403369,8.088415145874023,1
0.3002075448663166,8.091156721115112,1
0.295812477109022,8.093863487243652,1
0.2887315346111585,8.096569061279297,1
0.2782322060798436,8.099291801452637,1
0.2689537297033328,8.101999521255493,1
0.2660236845318031,8.104704141616821,1
0.2657795141008423,8.107407331466675,1
0.2574777194481747,8.110145330429077,1
0.2689537297033328,8.112848043441772,1
0.2608961054816261,8.115554332733154,1
0.263581980222195,8.118265867233276,1
0.2718837748748626,8.120998620986938,1
0.2679770479794896,8.12369704246521,1
0.2557685264314491,8.126398801803589,1
0.2608961054816261,8.12910532951355,1
0.2543035038456842,8.13183331489563,1
0.2535709925528018,8.1345374584198,1
0.2648028323769991,8.137247085571289,1
0.263581980222195,8.139984130859375,1
0.2491759247955072,8.142701148986816,1
0.2638261506531558,8.145404815673828,1
0.2569893785862531,8.148107528686523,1
0.2628494689293126,8.1508469581604,1
0.2848248077157855,8.15355634689331,1
0.2858014894396288,8.156264305114746,1
0.2823831034061774,8.158976316452026,1
0.2923940910755707,8.161715269088745,1
0.2850689781467463,8.164416313171387,1
0.2960566475399828,8.16712760925293,1
0.3094860212428274,8.169884204864502,1
0.3107068733976315,8.172593116760254,1
0.3065559760712977,8.175306797027588,1
0.3077768282261017,8.178011655807495,1
0.3004517152972774,8.180755615234375,1
0.2899523867659626,8.183466672897339,1
0.3026492491759247,8.186173439025879,1
0.3002075448663166,8.188880443572998,1
0.2965449884019044,8.191618204116821,1
0.2989866927115125,8.194323539733887,1
0.2960566475399828,8.197030544281006,1
0.2894640459040409,8.199765682220459,1
0.3026492491759247,8.202473163604736,1
0.3019167378830423,8.2051842212677,1
0.2984983518495909,8.207890272140503,1
0.2965449884019044,8.210632562637329,1
0.2987425222805517,8.213339567184448,1
0.294591624954218,8.21604585647583,1
0.3077768282261017,8.218751192092896,1
0.3124160664143571,8.221501350402832,1
0.3141252594310828,8.22420597076416,1
0.3082651690880233,8.226916074752808,1
0.3119277255524355,8.229658126831055,1
0.3065559760712977,8.232372522354126,1
0.3082651690880233,8.235080003738403,1
