semg,time,class
0.2530826516908802,0.0025856494903564,0
0.2613844463435477,0.0052573680877685,0
0.2657795141008423,0.007730484008789,0
0.2547918447076058,0.0101816654205322,0
0.2589427420339396,0.0125384330749511,0
0.259675253326822,0.0148720741271972,0
0.2555243560004883,0.0172705650329589,0
0.2599194237577829,0.0196082592010498,0
0.2660236845318031,0.0220496654510498,0
0.2694420705652545,0.0244276523590087,0
0.2586985716029788,0.0267488956451416,0
0.2616286167745085,0.0290873050689697,0
0.2608961054816261,0.031388521194458,0
0.2574777194481747,0.0337245464324951,0
0.259675253326822,0.0359623432159423,0
0.2684653888414112,0.0385186672210693,0
0.2723721157367842,0.0409708023071289,0
0.2621169576364301,0.0430920124053955,0
0.2613844463435477,0.0452814102172851,0
0.2648028323769991,0.0477583408355712,0
0.2599194237577829,0.0500855445861816,0
0.2616286167745085,0.0521774291992187,0
0.2723721157367842,0.0544352531433105,0
0.2716396044439018,0.0567972660064697,0
0.2684653888414112,0.0590453147888183,0
0.2599194237577829,0.0615034103393554,0
0.267488707117568,0.0639164447784423,0
0.2626052984983518,0.0663018226623535,0
0.2638261506531558,0.0686953067779541,0
0.2750579904773531,0.071073293685913,0
0.2733487974606274,0.0735065937042236,0
0.2711512635819801,0.0758399963378906,0
0.2621169576364301,0.0781798362731933,0
0.2694420705652545,0.0805020332336425,0
0.2638261506531558,0.0828769207000732,0
0.2655353436698815,0.0852754116058349,0
0.276523013063118,0.0881662368774414,0
0.2755463313392747,0.0912938117980957,0
0.2616286167745085,0.0941660404205322,0
0.2677328775485288,0.0970203876495361,0
0.2586985716029788,0.0998034477233886,0
0.2608961054816261,0.1026434898376464,0
0.2716396044439018,0.1054294109344482,0
0.2706629227200585,0.1081585884094238,0
0.2567452081552923,0.110931396484375,0
0.2648028323769991,0.1137208938598632,0
0.2560126968624099,0.1164572238922119,0
0.2577218898791356,0.1192142963409423,0
0.2696862409962153,0.1220157146453857,0
0.2684653888414112,0.1247494220733642,0
0.2540593334147234,0.1275229454040527,0
0.2626052984983518,0.1302919387817382,0
0.2530826516908802,0.1330230236053466,0
0.2538151629837626,0.1357991695404052,0
0.2657795141008423,0.1385641098022461,0
0.2645586619460383,0.1413383483886718,0
0.2503967769503112,0.1441078186035156,0
0.2594310828958612,0.1468477249145507,0
0.2513734586741545,0.1495792865753173,0
0.2511292882431937,0.1523833274841308,0
0.263581980222195,0.155125617980957,0
0.262361128067391,0.1578562259674072,0
0.2491759247955072,0.1606850624084472,0
0.2567452081552923,0.1634252071380615,0
0.2489317543645464,0.166170597076416,0
0.2486875839335856,0.168947696685791,0
0.2599194237577829,0.1717429161071777,0
0.259675253326822,0.1744766235351562,0
0.2477109022097423,0.1772558689117431,0
0.2547918447076058,0.1800248622894287,0
0.2484434135026247,0.1827654838562011,0
0.2474667317787815,0.1855454444885254,0
0.2616286167745085,0.1882896423339843,0
0.2582102307410572,0.1910574436187744,0
0.2462458796239774,0.1938354969024658,0
0.2523501403979977,0.1965742111206054,0
0.2469783909168599,0.199352741241455,0
0.2462458796239774,0.2021276950836181,0
0.2577218898791356,0.2048711776733398,0
0.2560126968624099,0.2076449394226074,0
0.245513368331095,0.2104203701019287,0
0.2506409473812721,0.2131550312042236,0
0.2457575387620558,0.2159516811370849,0
0.2450250274691734,0.2186899185180664,0
0.2569893785862531,0.2214610576629638,0
0.2560126968624099,0.2242376804351806,0
0.2469783909168599,0.2269775867462158,0
0.2511292882431937,0.2297070026397705,0
0.2469783909168599,0.2325174808502197,0
0.2457575387620558,0.2352588176727295,0
0.2577218898791356,0.2379884719848632,0
0.2555243560004883,0.2408103942871093,0
0.2479550726407031,0.2435524463653564,0
0.2508851178122329,0.2462861537933349,0
0.2472225613478207,0.24906587600708,0
0.2450250274691734,0.2518303394317627,0
0.2567452081552923,0.2545652389526367,0
0.2550360151385666,0.2573411464691162,0
0.2462458796239774,0.2601141929626465,0
0.2484434135026247,0.2628524303436279,0
0.2460017091930166,0.2656290531158447,0
0.2435600048834085,0.2683639526367187,0
0.2555243560004883,0.2711420059204101,0
0.2538151629837626,0.2739055156707763,0
0.2467342204858991,0.2766447067260742,0
0.2479550726407031,0.2794456481933594,0
0.2460017091930166,0.2822484970092773,0
0.2423391527286045,0.2849886417388916,0
0.2543035038456842,0.287761926651001,0
0.2530826516908802,0.290553331375122,0
0.2462458796239774,0.2932939529418945,0
0.2462458796239774,0.2960684299468994,0
0.2457575387620558,0.2988059520721435,0
0.2433158344524477,0.3015828132629394,0
0.254547674276645,0.3043668270111084,0
0.2523501403979977,0.3071005344390869,0
0.2469783909168599,0.3099691867828369,0
0.2472225613478207,0.3127517700195312,0
0.2462458796239774,0.315495491027832,0
0.2430716640214869,0.3182284832000732,0
0.2547918447076058,0.3210442066192627,0
0.2535709925528018,0.3237764835357666,0
0.2469783909168599,0.326517105102539,0
0.2462458796239774,0.329296350479126,0
0.2457575387620558,0.3320660591125488,0
0.2423391527286045,0.3347933292388916,0
0.2525943108289585,0.3375756740570068,0
0.2508851178122329,0.3403489589691162,0
0.2469783909168599,0.3430812358856201,0
0.2447808570382126,0.3458633422851562,0
0.2460017091930166,0.3486056327819824,0
0.2430716640214869,0.351419448852539,0
0.2530826516908802,0.3541576862335205,0
0.2518617995360761,0.3568868637084961,0
0.2472225613478207,0.3596706390380859,0
0.2433158344524477,0.3624348640441894,0
0.2450250274691734,0.3651802539825439,0
0.2413624710047612,0.3679604530334472,0
0.2506409473812721,0.3707311153411865,0
0.2511292882431937,0.3734626770019531,0
0.2474667317787815,0.3762369155883789,0
0.2420949822976437,0.378974437713623,0
0.2462458796239774,0.3817396163940429,0
0.2423391527286045,0.3845086097717285,0
0.2501526065193504,0.3872413635253906,0
0.2518617995360761,0.3908109664916992,0
0.240385789280918,0.394289493560791,0
0.2499084360883896,0.3970437049865722,0
0.2423391527286045,0.3998599052429199,0
0.2433158344524477,0.4028778076171875,0
0.2543035038456842,0.4056148529052734,0
0.2547918447076058,0.4083931446075439,0
0.2408741301428396,0.4112000465393066,0
0.2499084360883896,0.4142329692840576,0
0.2438041753143693,0.4170200824737549,0
0.2452691979001342,0.4197957515716553,0
0.2547918447076058,0.422527551651001,0
0.2523501403979977,0.4255616664886474,0
0.2398974484189964,0.4282925128936767,0
0.2501526065193504,0.4310498237609863,0
0.2438041753143693,0.4341077804565429,0
0.2489317543645464,0.4368557929992676,0
0.2543035038456842,0.4396324157714844,0
0.2530826516908802,0.4423975944519043,0
0.2420949822976437,0.4454131126403808,0
0.2496642656574288,0.4481985569000244,0
0.2460017091930166,0.4509727954864502,0
0.2521059699670369,0.4537010192871094,0
0.2547918447076058,0.4567461013793945,0
0.2513734586741545,0.4594826698303222,0
0.245513368331095,0.4622607231140136,0
0.2521059699670369,0.465301513671875,0
0.2462458796239774,0.468043565750122,0
0.2579660603100964,0.4708173274993896,0
0.2557685264314491,0.4736044406890869,0
0.2518617995360761,0.4766075611114502,0
0.2489317543645464,0.4793951511383056,0
0.249420095226468,0.482168436050415,0
0.2472225613478207,0.4849059581756592,0
0.2586985716029788,0.4879579544067383,0
0.2569893785862531,0.4907495975494385,0
0.2499084360883896,0.4934985637664795,0
0.2501526065193504,0.4965415000915527,0
0.2479550726407031,0.499295711517334,0
0.2472225613478207,0.5020701885223389,0
0.2589427420339396,0.5048420429229736,0
0.2589427420339396,0.5078554153442383,0
0.2491759247955072,0.5106353759765625,0
0.2547918447076058,0.513418436050415,0
0.2508851178122329,0.5161662101745605,0
0.2506409473812721,0.5192124843597412,0
0.2626052984983518,0.5220210552215576,0
0.2613844463435477,0.5247628688812256,0
0.2491759247955072,0.5277824401855469,0
0.2567452081552923,0.5305931568145752,0
0.2481992430716639,0.5333406925201416,0
0.2484434135026247,0.5361528396606445,0
0.2582102307410572,0.5394692420959473,0
0.258454401172018,0.542250394821167,0
0.244292516176291,0.5450375080108643,0
0.2538151629837626,0.5477771759033203,0
0.2472225613478207,0.5508363246917725,0
0.2530826516908802,0.5536179542541504,0
0.2577218898791356,0.556361198425293,0
0.2567452081552923,0.5594055652618408,0
0.2462458796239774,0.5621793270111084,0
0.2503967769503112,0.5649192333221436,0
0.2462458796239774,0.5677001476287842,0
0.2540593334147234,0.5707399845123291,0
0.2577218898791356,0.5734848976135254,0
0.2523501403979977,0.5762598514556885,0
0.2462458796239774,0.5789988040924072,0
0.2499084360883896,0.5820615291595459,0
0.2462458796239774,0.5848453044891357,0
0.2557685264314491,0.5875794887542725,0
0.2557685264314491,0.5906212329864502,0
0.2501526065193504,0.593402624130249,0
0.2486875839335856,0.5961451530456543,0
0.2496642656574288,0.598884105682373,0
0.2469783909168599,0.6019701957702637,0
0.259675253326822,0.6047186851501465,0
0.2608961054816261,0.6075000762939453,0
0.2516176291051153,0.6102695465087891,0
0.254547674276645,0.6132771968841553,0
0.2503967769503112,0.6160604953765869,0
0.2484434135026247,0.6188066005706787,0
0.2604077646197045,0.6218559741973877,0
0.259675253326822,0.6246464252471924,0
0.2479550726407031,0.6273965835571289,0
0.2538151629837626,0.63016676902771,0
0.2479550726407031,0.6332285404205322,0
0.2489317543645464,0.6359763145446777,0
0.2613844463435477,0.6387214660644531,0
0.2618727872054693,0.641533613204956,0
0.2479550726407031,0.6445555686950684,0
0.2577218898791356,0.6473398208618164,0
0.2499084360883896,0.6501548290252686,0
0.2506409473812721,0.6531691551208496,0
0.2616286167745085,0.655951976776123,0
0.2601635941887437,0.6586933135986328,0
0.2460017091930166,0.661473274230957,0
0.2555243560004883,0.664525032043457,0
0.2479550726407031,0.6672780513763428,0
0.2506409473812721,0.6700539588928223,0
0.259675253326822,0.6728413105010986,0
0.2579660603100964,0.6758584976196289,0
0.2462458796239774,0.6786067485809326,0
0.2540593334147234,0.6814143657684326,0
0.2499084360883896,0.6844432353973389,0
0.2569893785862531,0.6872029304504395,0
0.2613844463435477,0.6899933815002441,0
0.2586985716029788,0.692730188369751,0
0.2496642656574288,0.695789098739624,0
0.2543035038456842,0.6985268592834473,0
0.2501526065193504,0.7012937068939209,0
0.2577218898791356,0.7040696144104004,0
0.2608961054816261,0.7070784568786621,0
0.2565010377243315,0.7098472118377686,0
0.2518617995360761,0.7126281261444092,0
0.2547918447076058,0.7156548500061035,0
0.2516176291051153,0.7184011936187744,0
0.2626052984983518,0.7212395668029785,0
0.2616286167745085,0.7239818572998047,0
0.2560126968624099,0.7269973754882812,0
0.2550360151385666,0.7298009395599365,0
0.2530826516908802,0.7325446605682373,0
0.2496642656574288,0.7353236675262451,0
0.2606519350506653,0.7383434772491455,0
0.2601635941887437,0.7411336898803711,0
0.2516176291051153,0.74391770362854,0
0.2547918447076058,0.7469401359558105,0
0.2508851178122329,0.7496812343597412,0
0.2511292882431937,0.7524871826171875,0
0.263581980222195,0.7552239894866943,0
0.2618727872054693,0.7582380771636963,0
0.2491759247955072,0.7610485553741455,0
0.2567452081552923,0.763789176940918,0
0.2501526065193504,0.7665195465087891,0
0.2508851178122329,0.7695426940917969,0
0.2626052984983518,0.7723472118377686,0
0.2628494689293126,0.775083065032959,0
0.2489317543645464,0.7781336307525635,0
0.2574777194481747,0.7809154987335205,0
0.2501526065193504,0.7836880683898926,0
0.2518617995360761,0.7864265441894531,0
0.2633378097912342,0.789440393447876,0
0.2621169576364301,0.7922871112823486,0
0.2484434135026247,0.7950339317321777,0
0.2574777194481747,0.7977705001831055,0
0.2508851178122329,0.8008570671081543,0
0.2560126968624099,0.8035986423492432,0
0.2626052984983518,0.8063366413116455,0
0.2616286167745085,0.8093864917755127,0
0.2491759247955072,0.8121638298034668,0
0.2574777194481747,0.8149023056030273,0
0.2518617995360761,0.8176870346069336,0
0.2567452081552923,0.8207519054412842,0
0.262361128067391,0.8235292434692383,0
0.2594310828958612,0.8262627124786377,0
0.2503967769503112,0.8289966583251953,0
0.2560126968624099,0.8320765495300293,0
0.2508851178122329,0.8348214626312256,0
0.2591869124649004,0.8375611305236816,0
0.2606519350506653,0.8406476974487305,0
0.2547918447076058,0.8433966636657715,0
0.2511292882431937,0.8461315631866455,0
0.2530826516908802,0.8489084243774414,0
0.2503967769503112,0.8519501686096191,0
0.2626052984983518,0.854727029800415,0
0.2611402759125869,0.8575172424316406,0
0.2547918447076058,0.8602912425994873,0
0.2557685264314491,0.8633444309234619,0
0.2516176291051153,0.8660793304443359,0
0.2499084360883896,0.8688220977783203,0
0.2613844463435477,0.8718979358673096,0
0.2608961054816261,0.8746371269226074,0
0.2508851178122329,0.8773729801177979,0
0.2557685264314491,0.8802125453948975,0
0.2540593334147234,0.8833057880401611,0
0.2506409473812721,0.8860461711883545,0
0.2621169576364301,0.8888225555419922,0
0.2618727872054693,0.8916168212890625,0
0.2477109022097423,0.8946413993835449,0
0.2569893785862531,0.8974180221557617,0
0.2481992430716639,0.9002046585083008,0
0.2491759247955072,0.9032478332519532,0
0.2599194237577829,0.9059925079345704,0
0.2608961054816261,0.9087252616882324,0
0.2469783909168599,0.9115478992462158,0
0.2560126968624099,0.9145615100860596,0
0.2484434135026247,0.9173123836517334,0
0.2511292882431937,0.9201397895812988,0
0.2608961054816261,0.9228811264038086,0
0.259675253326822,0.9259018898010254,0
0.2477109022097423,0.9286868572235109,0
0.2560126968624099,0.9314558506011964,0
0.2499084360883896,0.9344696998596193,0
0.2547918447076058,0.9372482299804688,0
0.2591869124649004,0.9401071071624756,0
0.2569893785862531,0.9428465366363524,0
0.2464900500549383,0.9459052085876464,0
0.2535709925528018,0.9486463069915771,0
0.2499084360883896,0.9514656066894532,0
0.2591869124649004,0.95420503616333,0
0.2618727872054693,0.9572200775146484,0
0.2574777194481747,0.9600317478179932,0
0.2523501403979977,0.9627690315246582,0
0.2540593334147234,0.9657673835754396,0
0.2499084360883896,0.9685611724853516,0
0.2599194237577829,0.9713318347930908,0
0.2586985716029788,0.9740684032440186,0
0.2535709925528018,0.9771163463592528,0
0.2528384812599193,0.9798910617828368,0
0.2511292882431937,0.9826200008392334,0
0.2496642656574288,0.9854092597961426,0
0.2621169576364301,0.9884235858917236,0
0.2613844463435477,0.991248369216919,0
0.2518617995360761,0.9939875602722168,0
0.254547674276645,0.9969933032989502,0
0.2508851178122329,0.9997999668121338,0
0.2511292882431937,1.0025405883789062,0
0.2618727872054693,1.0052731037139893,0
0.2616286167745085,1.008311748504639,0
0.2499084360883896,1.0111198425292969,0
0.2567452081552923,1.0138587951660156,0
0.2503967769503112,1.0166354179382324,0
0.2501526065193504,1.0196733474731443,0
0.2626052984983518,1.0224671363830566,0
0.2621169576364301,1.0252442359924316,0
0.2481992430716639,1.0282588005065918,0
0.2569893785862531,1.031036376953125,0
0.2489317543645464,1.0338141918182373,0
0.2508851178122329,1.0393397808074951,0
0.2608961054816261,1.042324781417847,0
0.2464900500549383,1.045079469680786,0
0.2569893785862531,1.0478816032409668,0
0.2499084360883896,1.0506784915924072,0
0.2508851178122329,1.0534100532531738,0
0.2611402759125869,1.0561909675598145,0
0.2608961054816261,1.058919906616211,0
0.2462458796239774,1.0617010593414309,0
0.2557685264314491,1.064483404159546,0
0.2477109022097423,1.067230463027954,0
0.2491759247955072,1.0700018405914309,0
0.259675253326822,1.0727808475494385,0
0.2599194237577829,1.0755162239074707,0
0.2457575387620558,1.078256368637085,0
0.254547674276645,1.081071138381958,0
0.2469783909168599,1.0838136672973633,0
0.2481992430716639,1.086552619934082,0
0.2606519350506653,1.0893282890319824,0
0.259675253326822,1.092113018035889,0
0.2450250274691734,1.0948491096496582,0
0.2540593334147234,1.0976150035858154,0
0.2462458796239774,1.1004648208618164,0
0.2472225613478207,1.1032438278198242,0
0.2594310828958612,1.105980634689331,0
0.2599194237577829,1.1087071895599363,0
0.2469783909168599,1.111518144607544,0
0.2562568672933707,1.114253044128418,0
0.2481992430716639,1.1169939041137695,0
0.2496642656574288,1.1198246479034424,0
0.262361128067391,1.1225769519805908,0
0.2608961054816261,1.1253101825714111,0
0.2469783909168599,1.128091812133789,0
0.2557685264314491,1.1308960914611816,0
0.2474667317787815,1.1336398124694824,0
0.2477109022097423,1.136425256729126,0
0.2599194237577829,1.1391584873199463,0
0.2594310828958612,1.1419317722320557,0
0.2460017091930166,1.1447134017944336,0
0.2552801855695275,1.147458553314209,0
0.2477109022097423,1.1502327919006348,0
0.2481992430716639,1.153012752532959,0
0.2606519350506653,1.155754327774048,0
0.259675253326822,1.1584866046905518,0
0.2462458796239774,1.161298751831055,0
0.2538151629837626,1.1640410423278809,0
0.2467342204858991,1.1667895317077637,0
0.2472225613478207,1.1695749759674072,0
0.2618727872054693,1.17234206199646,0
0.2589427420339396,1.1750779151916504,0
0.2462458796239774,1.1778547763824463,0
0.2530826516908802,1.180621862411499,0
0.2481992430716639,1.1834008693695068,0
0.2477109022097423,1.1861441135406494,0
0.2594310828958612,1.1888823509216309,0
0.2582102307410572,1.1916911602020264,0
0.2460017091930166,1.1944332122802734,0
0.2508851178122329,1.1971631050109863,0
0.2450250274691734,1.199974775314331,0
0.2460017091930166,1.2027151584625244,0
0.2582102307410572,1.2054471969604492,0
0.258454401172018,1.208223819732666,0
0.2479550726407031,1.2110064029693604,0
0.2538151629837626,1.214026927947998,0
0.2469783909168599,1.2169229984283447,0
0.2481992430716639,1.2197039127349854,0
0.259675253326822,1.2224774360656738,0
0.2586985716029788,1.2252581119537354,0
0.2452691979001342,1.227992296218872,0
0.2538151629837626,1.2307589054107666,0
0.2462458796239774,1.2335433959960938,0
0.2467342204858991,1.2362794876098633,0
0.2586985716029788,1.2390141487121582,0
0.2586985716029788,1.241844892501831,0
0.2460017091930166,1.2445893287658691,0
0.2530826516908802,1.2473595142364502,0
0.2477109022097423,1.250159502029419,0
0.2472225613478207,1.252899169921875,0
0.2589427420339396,1.2556710243225098,0
0.2579660603100964,1.258404016494751,0
0.2464900500549383,1.2611782550811768,0
0.2530826516908802,1.263957977294922,0
0.2472225613478207,1.266697645187378,0
0.2457575387620558,1.2694380283355713,0
0.2577218898791356,1.272334098815918,0
0.2567452081552923,1.2750730514526367,0
0.2445366866072518,1.2778081893920898,0
0.2508851178122329,1.2806129455566406,0
0.2457575387620558,1.2833552360534668,0
0.2445366866072518,1.286095380783081,0
0.2560126968624099,1.2888782024383545,0
0.2555243560004883,1.2916560173034668,0
0.2435600048834085,1.2943928241729736,0
0.2484434135026247,1.2971763610839844,0
0.2440483457453302,1.2999446392059326,0
0.2425833231595653,1.3026831150054932,0
0.2550360151385666,1.3054907321929932,0
0.254547674276645,1.308218002319336,0
0.2445366866072518,1.310993194580078,0
0.2484434135026247,1.313767910003662,0
0.244292516176291,1.3164963722229004,0
0.2423391527286045,1.3192710876464844,0
0.2547918447076058,1.3220493793487549,0
0.2530826516908802,1.3247861862182615,0
0.2435600048834085,1.3275656700134275,0
0.2469783909168599,1.330333232879639,0
0.2423391527286045,1.3330695629119873,0
0.2420949822976437,1.3358516693115234,0
0.2540593334147234,1.3385820388793943,0
0.2521059699670369,1.3413496017456057,0
0.2438041753143693,1.344135046005249,0
0.2462458796239774,1.3468713760375977,0
0.2430716640214869,1.3496129512786863,0
0.2406299597118788,1.3524441719055176,0
0.2538151629837626,1.355180263519287,0
0.2523501403979977,1.357917547225952,0
0.2450250274691734,1.360727071762085,0
0.2481992430716639,1.36346435546875,0
0.2447808570382126,1.366201877593994,0
0.2413624710047612,1.3689799308776855,0
0.2535709925528018,1.3717663288116455,0
0.2518617995360761,1.3744993209838867,0
0.2447808570382126,1.37727689743042,0
0.2452691979001342,1.3800523281097412,0
0.2438041753143693,1.3827941417694092,0
0.2420949822976437,1.3855690956115725,0
0.2530826516908802,1.3882989883422852,0
0.2521059699670369,1.391057014465332,0
0.2464900500549383,1.3938319683074951,0
0.2457575387620558,1.3965718746185305,0
0.2460017091930166,1.3993568420410156,0
0.2423391527286045,1.4021222591400146,0
0.2530826516908802,1.4048597812652588,0
0.2540593334147234,1.4076342582702637,0
0.2462458796239774,1.4104053974151611,0
0.244292516176291,1.4131436347961426,0
0.2462458796239774,1.415924310684204,0
0.2430716640214869,1.4186639785766602,0
0.2557685264314491,1.42144513130188,0
0.2550360151385666,1.4242322444915771,0
0.2503967769503112,1.4269602298736572,0
0.2469783909168599,1.4297006130218506,0
0.2474667317787815,1.4327161312103271,0
0.2452691979001342,1.43544602394104,0
0.2543035038456842,1.4381792545318604,0
0.2538151629837626,1.4409866333007812,0
0.2481992430716639,1.4437315464019775,0
0.2452691979001342,1.4464638233184814,0
0.2464900500549383,1.4492425918579102,0
0.2430716640214869,1.4520187377929688,0
0.2523501403979977,1.4547605514526367,0
0.2521059699670369,1.4575324058532717,0
0.2491759247955072,1.46030592918396,0
0.2450250274691734,1.4630494117736816,0
0.2467342204858991,1.4658489227294922,0
0.2440483457453302,1.468599796295166,0
0.2543035038456842,1.4714031219482422,0
0.2577218898791356,1.4741449356079102,0
0.2499084360883896,1.4768836498260498,0
0.2445366866072518,1.4796721935272217,0
0.2462458796239774,1.4824366569519043,0
0.2438041753143693,1.485172986984253,0
0.2518617995360761,1.4879529476165771,0
0.2550360151385666,1.4907495975494385,0
0.2499084360883896,1.4935009479522705,0
0.2440483457453302,1.4962882995605469,0
0.2479550726407031,1.499032735824585,0
0.244292516176291,1.5018022060394287,0
0.2521059699670369,1.5045833587646484,0
0.2540593334147234,1.5073208808898926,0
0.2501526065193504,1.5100908279418943,0
0.2430716640214869,1.5128793716430664,0
0.2481992430716639,1.5156209468841553,0
0.2438041753143693,1.5183649063110352,0
0.2499084360883896,1.5211858749389648,0
0.2521059699670369,1.5239195823669434,0
0.2491759247955072,1.5266578197479248,0
0.2411183005738004,1.5294404029846191,0
0.2462458796239774,1.5322058200836182,0
0.2420949822976437,1.534939527511597,0
0.2491759247955072,1.5380187034606934,0
0.2528384812599193,1.5408010482788086,0
0.2491759247955072,1.543590784072876,0
0.2433158344524477,1.5463290214538574,0
0.2464900500549383,1.5490694046020508,0
0.2430716640214869,1.5518860816955566,0
0.2508851178122329,1.5546185970306396,0
0.2518617995360761,1.5573534965515137,0
0.2484434135026247,1.5601887702941897,0
0.2418508118666829,1.562934637069702,0
0.2460017091930166,1.565709114074707,0
0.2420949822976437,1.568493127822876,0
0.2518617995360761,1.5712530612945557,0
0.2538151629837626,1.573991775512695,0
0.2499084360883896,1.5767738819122314,0
0.2430716640214869,1.5795128345489502,0
0.2472225613478207,1.5822856426239014,0
0.2440483457453302,1.585063934326172,0
0.2508851178122329,1.5877962112426758,0
0.2538151629837626,1.5905587673187256,0
0.2516176291051153,1.593330144882202,0
0.2430716640214869,1.5960676670074463,0
0.2484434135026247,1.5988025665283203,0
0.2438041753143693,1.6016082763671875,0
0.2503967769503112,1.604344129562378,0
0.2547918447076058,1.607079029083252,0
0.2518617995360761,1.6098945140838623,0
0.2420949822976437,1.612635612487793,0
0.2496642656574288,1.6154170036315918,0
0.2433158344524477,1.6181509494781494,0
0.2489317543645464,1.6209299564361572,0
0.2538151629837626,1.6237173080444336,0
0.2516176291051153,1.6264512538909912,0
0.240385789280918,1.629185914993286,0
0.2479550726407031,1.6320059299468994,0
0.2425833231595653,1.634738206863403,0
0.2472225613478207,1.6374690532684326,0
0.2550360151385666,1.640268087387085,0
0.2523501403979977,1.643000841140747,0
0.2398974484189964,1.6457364559173584,0
0.2491759247955072,1.648515701293945,0
0.2428274935905261,1.6512830257415771,0
0.2481992430716639,1.654019832611084,0
0.2574777194481747,1.6567940711975098,0
0.2574777194481747,1.6595234870910645,0
0.2440483457453302,1.6622860431671145,0
0.2523501403979977,1.665064573287964,0
0.2460017091930166,1.6678078174591064,0
0.2506409473812721,1.6705732345581057,0
0.2608961054816261,1.6733520030975342,0
0.2608961054816261,1.676088571548462,0
0.2462458796239774,1.6788225173950195,0
0.2574777194481747,1.6816346645355225,0
0.2499084360883896,1.6843867301940918,0
0.2518617995360761,1.687140941619873,0
0.2613844463435477,1.6899383068084717,0
0.2608961054816261,1.6926803588867188,0
0.2457575387620558,1.6954565048217771,0
0.2562568672933707,1.6981937885284424,0
0.2479550726407031,1.700972557067871,0
0.2508851178122329,1.703744649887085,0
0.2618727872054693,1.7064764499664309,0
0.2606519350506653,1.709221363067627,0
0.2462458796239774,1.712025165557861,0
0.2555243560004883,1.7147610187530518,0
0.2477109022097423,1.7174978256225586,0
0.2491759247955072,1.7203083038330078,0
0.2601635941887437,1.7230606079101562,0
0.259675253326822,1.725801706314087,0
0.244292516176291,1.728675127029419,0
0.2555243560004883,1.7314825057983398,0
0.2474667317787815,1.734219312667847,0
0.249420095226468,1.737001657485962,0
0.2601635941887437,1.739736795425415,0
0.2599194237577829,1.7425131797790527,0
0.2460017091930166,1.7453010082244873,0
0.2555243560004883,1.748035192489624,0
0.2469783909168599,1.750807523727417,0
0.2472225613478207,1.7535817623138428,0
0.259675253326822,1.756309986114502,0
0.2582102307410572,1.7590410709381104,0
0.244292516176291,1.7618427276611328,0
0.2528384812599193,1.7645740509033203,0
0.2450250274691734,1.7673454284667969,0
0.2462458796239774,1.770118236541748,0
0.2577218898791356,1.7728521823883057,0
0.2574777194481747,1.7756304740905762,0
0.2440483457453302,1.7783758640289309,0
0.2523501403979977,1.781144142150879,0
0.2450250274691734,1.7839276790618896,0
0.2440483457453302,1.7866661548614502,0
0.2569893785862531,1.7893996238708496,0
0.2567452081552923,1.7922043800354004,0
0.2440483457453302,1.7949512004852295,0
0.2518617995360761,1.7976899147033691,0
0.2447808570382126,1.8005061149597168,0
0.2447808570382126,1.803248167037964,0
0.2567452081552923,1.805984735488892,0
0.2555243560004883,1.808756113052368,0
0.2433158344524477,1.8115229606628416,0
0.2496642656574288,1.814260959625244,0
0.2440483457453302,1.817071914672852,0
0.2433158344524477,1.819833755493164,0
0.2543035038456842,1.822572946548462,0
0.2547918447076058,1.825348138809204,0
0.2430716640214869,1.828089714050293,0
0.2489317543645464,1.8308627605438232,0
0.2433158344524477,1.8336341381073,0
0.2423391527286045,1.8363752365112305,0
0.2543035038456842,1.8391261100769043,0
0.2538151629837626,1.8419110774993896,0
0.2430716640214869,1.8446545600891116,0
0.2474667317787815,1.8474347591400144,0
0.2428274935905261,1.850229263305664,0
0.2413624710047612,1.852975606918335,0
0.2538151629837626,1.8557507991790767,0
0.2530826516908802,1.85848331451416,0
0.2433158344524477,1.8612494468688965,0
0.2479550726407031,1.8640344142913816,0
0.2440483457453302,1.8667800426483157,0
0.2418508118666829,1.8695158958435056,0
0.2540593334147234,1.872316598892212,0
0.2528384812599193,1.875049114227295,0
0.2430716640214869,1.877786636352539,0
0.245513368331095,1.880600452423096,0
0.2428274935905261,1.883336067199707,0
0.2401416188499572,1.8860790729522705,0
0.2516176291051153,1.8888626098632808,0
0.2503967769503112,1.891631841659546,0
0.2420949822976437,1.894375562667847,0
0.2440483457453302,1.897163152694702,0
0.2430716640214869,1.8999357223510744,0
0.2396532779880356,1.902676343917847,0
0.2516176291051153,1.9054477214813232,0
0.2496642656574288,1.908195972442627,0
0.2423391527286045,1.9109561443328855,0
0.2430716640214869,1.9137322902679443,0
0.2413624710047612,1.9165019989013672,0
0.2394091075570747,1.919280767440796,0
0.2503967769503112,1.9220507144927976,0
0.2481992430716639,1.924804449081421,0
0.2430716640214869,1.9275968074798584,0
0.2438041753143693,1.9303810596466064,0
0.2428274935905261,1.933121681213379,0
0.2413624710047612,1.9359066486358645,0
0.2530826516908802,1.938638687133789,0
0.2508851178122329,1.941406011581421,0
0.2452691979001342,1.9441864490509035,0
0.2445366866072518,1.946927547454834,0
0.2438041753143693,1.9496641159057615,0
0.2413624710047612,1.9524712562561035,0
0.2530826516908802,1.9552137851715088,0
0.2516176291051153,1.9579482078552248,0
0.2469783909168599,1.9607622623443604,0
0.244292516176291,1.963500022888184,0
0.2440483457453302,1.966240406036377,0
0.2408741301428396,1.96901535987854,0
0.2530826516908802,1.971806526184082,0
0.2530826516908802,1.974539279937744,0
0.2486875839335856,1.9773175716400144,0
0.2450250274691734,1.980093240737915,0
0.2469783909168599,1.9828336238861084,0
0.2433158344524477,1.985619306564331,0
0.2538151629837626,1.9883499145507808,0
0.2538151629837626,1.9911518096923828,0
0.2508851178122329,1.993910312652588,0
0.2462458796239774,1.9966464042663572,0
0.2489317543645464,1.9994235038757324,0
0.2447808570382126,2.0021934509277344,0
0.2550360151385666,2.0049245357513428,0
0.2562568672933707,2.007704496383667,0
0.2525943108289585,2.010479211807251,0
0.2462458796239774,2.013209342956543,0
0.2491759247955072,2.0159800052642822,0
0.2452691979001342,2.01872181892395,0
0.2528384812599193,2.021493673324585,0
0.2550360151385666,2.024277925491333,0
0.2516176291051153,2.027014970779419,0
0.2440483457453302,2.029784917831421,0
0.2496642656574288,2.0325753688812256,0
0.2457575387620558,2.035317897796631,0
0.2562568672933707,2.0384249687194824,0
0.2567452081552923,2.0413589477539062,0
0.2516176291051153,2.0441019535064697,0
0.2496642656574288,2.0468406677246094,0
0.2503967769503112,2.049619436264038,0
0.2469783909168599,2.0523929595947266,0
0.2577218898791356,2.0551435947418213,0
0.2569893785862531,2.057896852493286,0
0.2523501403979977,2.0606632232666016,0
0.2481992430716639,2.0634469985961914,0
0.2508851178122329,2.066179037094116,0
0.2464900500549383,2.0689175128936768,0
0.2591869124649004,2.073028802871704,0
0.2589427420339396,2.075771808624268,0
0.2457575387620558,2.0785090923309326,0
0.2530826516908802,2.0813207626342773,0
0.2452691979001342,2.084341526031494,0
0.2477109022097423,2.087083339691162,0
0.2589427420339396,2.0899107456207275,0
0.2591869124649004,2.092923402786255,0
0.2440483457453302,2.0957140922546387,0
0.2547918447076058,2.0984597206115723,0
0.2464900500549383,2.1013169288635254,0
0.2499084360883896,2.104363918304444,0
0.259675253326822,2.1071059703826904,0
0.2586985716029788,2.1098709106445312,0
0.2447808570382126,2.112651824951172,0
0.2547918447076058,2.1156649589538574,0
0.2479550726407031,2.118407726287842,0
0.2528384812599193,2.121218204498291,0
0.2574777194481747,2.124262571334839,0
0.2550360151385666,2.127009630203247,0
0.2472225613478207,2.1298210620880127,0
0.2530826516908802,2.1325578689575195,0
0.2484434135026247,2.1356046199798584,0
0.2589427420339396,2.138343095779419,0
0.259675253326822,2.141108274459839,0
0.2560126968624099,2.1438775062561035,0
0.2511292882431937,2.1468958854675293,0
0.2518617995360761,2.149637222290039,0
0.2491759247955072,2.152447462081909,0
0.2601635941887437,2.155453681945801,0
0.259675253326822,2.158193826675415,0
0.2547918447076058,2.1610021591186523,0
0.2538151629837626,2.16373872756958,0
0.2535709925528018,2.166749954223633,0
0.2503967769503112,2.1695220470428467,0
0.2626052984983518,2.1722958087921143,0
0.2599194237577829,2.175034761428833,0
0.2501526065193504,2.178079128265381,0
0.2540593334147234,2.1808502674102783,0
0.2496642656574288,2.1836400032043457,0
0.2479550726407031,2.1866447925567627,0
0.2599194237577829,2.1893866062164307,0
0.2604077646197045,2.1921989917755127,0
0.2484434135026247,2.194941282272339,0
0.2540593334147234,2.197948932647705,0
0.2481992430716639,2.200767993927002,0
0.2472225613478207,2.203500986099243,0
0.2594310828958612,2.206238031387329,0
0.2594310828958612,2.209267854690552,0
0.2452691979001342,2.212066888809204,0
0.2530826516908802,2.2147977352142334,0
0.2450250274691734,2.217655658721924,0
0.2464900500549383,2.220622062683105,0
0.2577218898791356,2.223398208618164,0
0.2577218898791356,2.2261440753936768,0
0.2440483457453302,2.2291717529296875,0
0.2523501403979977,2.231989860534668,0
0.2462458796239774,2.234724283218384,0
0.2496642656574288,2.237464427947998,0
0.2589427420339396,2.2405636310577397,0
0.2577218898791356,2.2433011531829834,0
0.2450250274691734,2.246036529541016,0
0.2530826516908802,2.248806953430176,0
0.2479550726407031,2.251852035522461,0
0.2538151629837626,2.254593133926392,0
0.259675253326822,2.2573697566986084,0
0.2594310828958612,2.260408401489258,0
0.2491759247955072,2.2631731033325195,0
0.2562568672933707,2.2659287452697754,0
0.2513734586741545,2.268662929534912,0
0.259675253326822,2.271747589111328,0
0.2613844463435477,2.274522304534912,0
0.2574777194481747,2.2772583961486816,0
0.2508851178122329,2.2800660133361816,0
0.2530826516908802,2.2830636501312256,0
0.2496642656574288,2.285807609558105,0
0.2589427420339396,2.2885782718658447,0
0.2586985716029788,2.291616439819336,0
0.2535709925528018,2.2943553924560547,0
0.2528384812599193,2.297127485275269,0
0.2521059699670369,2.299891710281372,0
0.2491759247955072,2.302903413772583,0
0.263581980222195,2.3056814670562744,0
0.2626052984983518,2.3084065914154053,0
0.2569893785862531,2.311288833618164,0
0.2582102307410572,2.314296245574951,0
0.254547674276645,2.3170297145843506,0
0.2535709925528018,2.319830894470215,0
0.2667561958246855,2.32283616065979,0
0.267488707117568,2.325587749481201,0
0.2569893785862531,2.3284003734588623,0
0.2616286167745085,2.331206798553467,0
0.2555243560004883,2.334217071533203,0
0.2586985716029788,2.3370018005371094,0
0.2679770479794896,2.339745044708252,0
0.2682212184104504,2.3425168991088867,0
0.2530826516908802,2.345548629760742,0
0.2618727872054693,2.348287343978882,0
0.2530826516908802,2.351055383682251,0
0.2555243560004883,2.354103803634644,0
0.2655353436698815,2.3568501472473145,0
0.2652911732389207,2.3596301078796387,0
0.2506409473812721,2.3623921871185303,0
0.2594310828958612,2.3654019832611084,0
0.2518617995360761,2.3681814670562744,0
0.2547918447076058,2.370956420898437,0
0.2626052984983518,2.373692989349365,0
0.2608961054816261,2.376751661300659,0
0.2481992430716639,2.379495143890381,0
0.2555243560004883,2.3822619915008545,0
0.2496642656574288,2.3853158950805664,0
0.2540593334147234,2.388050079345703,0
0.2577218898791356,2.390817165374756,0
0.2577218898791356,2.3935954570770264,0
0.2462458796239774,2.3966071605682373,0
0.2530826516908802,2.3993823528289795,0
0.2489317543645464,2.4021637439727783,0
0.2555243560004883,2.4048960208892822,0
0.2557685264314491,2.407940149307251,0
0.2538151629837626,2.4107155799865723,0
0.2477109022097423,2.413456678390503,0
0.2499084360883896,2.4165070056915283,0
0.2452691979001342,2.4192466735839844,0
0.2555243560004883,2.4220175743103027,0
0.2547918447076058,2.4247865676879883,0
0.2464900500549383,2.427821397781372,0
0.2460017091930166,2.4306137561798096,0
0.2491759247955072,2.433398962020874,0
0.2423391527286045,2.436136484146118,0
0.2521059699670369,2.4391794204711914,0
0.2503967769503112,2.441986322402954,0
0.2420949822976437,2.444727659225464,0
0.2447808570382126,2.4477550983428955,0
0.2418508118666829,2.450561285018921,0
0.2384324258332315,2.4533042907714844,0
0.2499084360883896,2.4560911655426025,0
0.2489317543645464,2.4591102600097656,0
0.2374557441093883,2.4618899822235107,0
0.2440483457453302,2.4646711349487305,0
0.2386765962641923,2.467413902282715,0
0.2411183005738004,2.470670223236084,0
0.2538151629837626,2.473459243774414,0
0.2543035038456842,2.4761903285980225,0
0.2401416188499572,2.4792423248291016,0
0.2489317543645464,2.4820268154144287,0
0.2411183005738004,2.4847707748413086,0
0.2428274935905261,2.48755407333374,0
0.2586985716029788,2.4906165599823,0
0.2530826516908802,2.493354320526123,0
0.2413624710047612,2.496134757995605,0
0.2560126968624099,2.498873233795166,0
0.2501526065193504,2.501906156539917,0
0.2540593334147234,2.504680633544922,0
0.2586985716029788,2.507425546646118,0
0.2569893785862531,2.5104622840881348,0
0.2462458796239774,2.5132501125335693,0
0.2521059699670369,2.515986919403076,0
0.2464900500549383,2.5187222957611084,0
0.2508851178122329,2.5218019485473637,0
0.2555243560004883,2.524538040161133,0
0.2508851178122329,2.52732515335083,0
0.2430716640214869,2.530113458633423,0
0.2477109022097423,2.533137559890747,0
0.2440483457453302,2.535919189453125,0
0.2555243560004883,2.538961172103882,0
0.2540593334147234,2.5420162677764893,0
0.2464900500549383,2.5448036193847656,0
0.2481992430716639,2.547546863555908,0
0.2462458796239774,2.5503151416778564,0
0.2503967769503112,2.5533523559570312,0
0.2655353436698815,2.5560922622680664,0
0.2667561958246855,2.558830738067627,0
0.2640703210841166,2.561640977859497,0
0.267488707117568,2.5646564960479736,0
0.2594310828958612,2.5674307346343994,0
0.2557685264314491,2.5702273845672607,0
0.2696862409962153,2.573239326477051,0
0.2662678549627639,2.5760200023651123,0
0.2511292882431937,2.578754425048828,0
0.2586985716029788,2.581521987915039,0
0.2543035038456842,2.584566593170166,0
0.2518617995360761,2.58729887008667,3
0.2608961054816261,2.590057849884033,3
0.2606519350506653,2.5928292274475098,3
0.259675253326822,2.595839023590088,3
0.2499084360883896,2.5985827445983887,3
0.244292516176291,2.6013972759246826,3
0.2401416188499572,2.604417085647583,3
0.2481992430716639,2.607178211212158,3
0.2499084360883896,2.609971284866333,3
0.2355023806617018,2.6127095222473145,3
0.2460017091930166,2.61576247215271,3
0.2440483457453302,2.6185009479522705,3
0.2413624710047612,2.621269941329956,3
0.2481992430716639,2.62404727935791,3
0.2477109022097423,2.62708044052124,3
0.2359907215236234,2.6298608779907227,3
0.2430716640214869,2.6326491832733154,3
0.2374557441093883,2.6356990337371826,3
0.2340373580759369,2.6384472846984863,3
0.235258210230741,2.6412577629089355,3
0.2323281650592112,2.6439995765686035,3
0.2242705408375045,2.647010564804077,3
0.2276889268709558,2.6498165130615234,3
0.2328165059211329,2.6525561809539795,3
0.2652911732389207,2.655334949493408,3
0.2753021609083139,2.65834379196167,3
0.2843364668538639,2.6611168384552,3
0.281650592113295,2.6638991832733154,3
0.2875106824563544,2.666908025741577,3
0.2831156146990599,2.6696505546569824,3
0.291905750213649,2.672457695007324,3
0.2899523867659626,2.6751983165740967,3
0.2804297399584909,2.678210973739624,3
0.2750579904773531,2.6810173988342285,3
0.2665120253937247,2.683760166168213,3
0.2660236845318031,2.686487913131714,3
0.2694420705652545,2.689509630203247,3
0.2760346722011964,2.6923060417175293,3
0.2704187522890977,2.6950464248657227,3
0.2757905017702355,2.6981008052825928,3
0.2770113539250396,2.700880527496338,3
0.2831156146990599,2.7036614418029785,3
0.2960566475399828,2.7064013481140137,3
0.3019167378830423,2.7094101905822754,3
0.2938591136613355,2.712223768234253,3
0.2987425222805517,2.7149643898010254,3
0.2894640459040409,2.7176992893218994,3
0.2931266023684531,2.721519708633423,3
0.2882431937492369,2.7242586612701416,3
0.2821389329752166,2.72699236869812,3
0.2792088878036869,2.7298295497894287,3
0.2999633744353558,2.7325758934021,3
0.2955683066780612,2.7353670597076416,3
0.3102185325357098,2.738108396530152,3
0.3221828836527896,2.740898370742798,3
0.3407398364058112,2.743680238723755,3
0.3282871444268098,2.746413469314575,3
0.3285313148577706,2.749150037765503,3
0.3180319863264558,2.751962423324585,3
0.3097301916737882,2.7546935081481934,3
0.3082651690880233,2.7574398517608643,3
0.3097301916737882,2.7602500915527344,3
0.2950799658161396,2.762984037399292,3
0.299719204004395,2.765707492828369,3
0.2909290684898058,2.768505573272705,3
0.300940056159199,2.7712855339050293,3
0.3097301916737882,2.774019479751587,3
0.3214503723599071,2.776796340942383,3
0.3085093395189842,2.779531478881836,3
0.3082651690880233,2.782294273376465,3
0.299719204004395,2.7850773334503174,3
0.2938591136613355,2.7878072261810303,3
0.2887315346111585,2.790926456451416,3
0.2889757050421193,2.7947940826416016,3
0.2850689781467463,2.7982161045074463,3
0.2743254791844707,2.801182746887207,3
0.2618727872054693,2.8039865493774414,3
0.259675253326822,2.807372570037842,3
0.2574777194481747,2.810511589050293,3
0.2467342204858991,2.8133175373077397,3
0.2633378097912342,2.816335916519165,3
0.2562568672933707,2.8193631172180176,3
0.2648028323769991,2.822619676589966,3
0.2638261506531558,2.825802564620972,3
0.2521059699670369,2.8288960456848145,3
0.2608961054816261,2.8323214054107666,3
0.2547918447076058,2.835487365722656,3
0.2718837748748626,2.838541030883789,3
0.2750579904773531,2.841877222061157,3
0.2735929678915882,2.844999074935913,3
0.2757905017702355,2.8481945991516118,3
0.2696862409962153,2.8512978553771973,3
0.2706629227200585,2.8544182777404785,3
0.2914174093517274,2.8575496673583984,3
0.2967891588328653,2.860640048980713,3
0.3019167378830423,2.8637049198150635,3
0.3107068733976315,2.866651058197021,3
0.300940056159199,2.8700082302093506,3
0.3234037358075936,2.8729493618011475,3
0.3199853497741423,2.87574315071106,3
0.3107068733976315,2.878971815109253,3
0.3380539616652422,2.882251739501953,3
0.3273104627029666,2.8850584030151367,3
0.3251129288243193,2.887934684753418,3
0.3251129288243193,2.891123056411743,3
0.3192528384812598,2.8942441940307617,3
0.3114393846905139,2.897350788116455,3
0.3133927481382004,2.9005825519561768,3
0.331949700891222,2.9038004875183105,3
0.3597851300207544,2.906928539276123,3
0.3707727994139909,2.9101123809814453,3
0.3566109144182638,2.913302421569824,3
0.3617384934684409,2.916402101516724,3
0.3485532901965571,2.9196255207061768,3
0.3429373702844585,2.9227635860443115,3
0.342204858991576,2.9258153438568115,3
0.3414723476986936,2.928987741470337,3
0.3505066536442436,2.932247877120972,3
0.3417165181296544,2.935186624526977,3
0.3492858014894395,2.9382283687591557,3
0.3570992552801855,2.941268920898437,3
0.3456232450250274,2.9443633556365967,3
0.3397631546819679,2.9473965167999268,3
0.3361005982175558,2.950279474258423,3
0.3339030643389085,2.953558444976806,3
0.3321938713221828,2.956686019897461,3
0.331949700891222,2.95964789390564,3
0.3153461115858869,2.962533712387085,3
0.331949700891222,2.965566635131836,3
0.3302405078744963,2.968808889389038,3
0.3507508240752044,2.971893548965454,3
0.3534366988157733,2.9750001430511475,3
0.3475766084727139,2.978247165679932,3
0.3485532901965571,2.9814488887786865,3
0.3429373702844585,2.984637260437012,3
0.3514833353680868,2.9877820014953613,3
0.356366743987303,2.9909491539001465,3
0.3673544133805395,2.9941956996917725,3
0.3617384934684409,2.9972989559173584,3
0.360273470882676,3.0005013942718506,3
0.3585642778659503,3.003598690032959,3
0.3810279575143449,3.006643056869507,3
0.3741911854474422,3.009851217269897,3
0.3556342326944206,3.0128605365753174,3
0.3766328897570503,3.0159125328063965,3
0.3702844585520692,3.019150972366333,3
0.3673544133805395,3.022102117538452,3
0.3610059821755584,3.024986505508423,3
0.360273470882676,3.028164863586426,3
0.3656452203638138,3.031458854675293,3
0.3553900622634598,3.034313201904297,3
0.3407398364058112,3.0374250411987305,3
0.3341472347698693,3.040642499923706,3
0.3253570992552801,3.0437264442443848,3
0.3321938713221828,3.0467100143432617,3
0.3468440971798314,3.0500056743621826,3
0.3361005982175558,3.053159236907959,3
0.3441582224392625,3.05641770362854,3
0.340984006836772,3.059627056121826,3
0.3285313148577706,3.0627989768981934,3
0.3343914052008301,3.066006183624268,3
0.3368331095104382,3.069127082824707,3
0.3539250396776949,3.072425127029419,3
0.3546575509705774,3.0754153728485107,3
0.356366743987303,3.0785508155822754,3
0.3578317665730679,3.0818979740142822,3
0.3492858014894395,3.084834098815918,3
0.3527041875228909,3.0878849029541016,3
0.3578317665730679,3.0908093452453613,3
0.359052618727872,3.093586206436157,3
0.3514833353680868,3.096414089202881,3
0.3534366988157733,3.099150419235229,3
0.3536808692467341,3.1019303798675537,3
0.346111585886949,3.1047110557556152,3
0.3382981320962031,3.1074442863464355,3
0.3441582224392625,3.110214710235596,3
0.3361005982175558,3.1129887104034424,3
0.3253570992552801,3.1157259941101074,3
0.3390306433890855,3.118464231491089,3
0.3324380417531436,3.1212804317474365,3
0.3219387132218287,3.124017238616944,3
0.3155902820168477,3.126748323440552,3
0.3028934196068855,3.1295197010040283,3
0.3006958857282382,3.132315397262573,3
0.291905750213649,3.13505482673645,3
0.2921499206446099,3.137835741043091,3
0.3055792943474544,3.1406137943267822,3
0.2977658405567085,3.143400192260742,3
0.2950799658161396,3.14614200592041,3
0.3143694298620436,3.148876428604126,3
0.3065559760712977,3.15169358253479,3
0.3082651690880233,3.1544318199157715,3
0.3094860212428274,3.1571719646453857,3
0.3038701013307288,3.1599972248077397,3
0.2960566475399828,3.1627449989318848,3
0.290684898058845,3.165494203567505,3
0.2843364668538639,3.16827654838562,3
0.2931266023684531,3.1710753440856934,3
0.2977658405567085,3.1738123893737797,3
0.3068001465022585,3.1765873432159424,3
0.3038701013307288,3.179328680038452,3
0.3102185325357098,3.182103395462036,3
0.2999633744353558,3.184878349304199,3
0.2850689781467463,3.187610149383545,3
0.2987425222805517,3.1903927326202397,3
0.2953241362471004,3.193166494369507,3
0.2784763765108045,3.1959033012390137,3
0.2882431937492369,3.1986451148986816,3
0.2804297399584909,3.201467990875244,3
0.2875106824563544,3.20420241355896,3
0.3028934196068855,3.206940174102783,3
0.3014283970211207,3.209716558456421,3
0.3085093395189842,3.2124903202056885,3
0.3256012696862409,3.21526312828064,3
0.3172994750335733,3.218005657196045,3
0.3258454401172017,3.2207767963409424,3
0.3439140520083017,3.2235493659973145,3
0.3419606885606152,3.2262864112854004,3
0.3290196557196922,3.2290279865264893,3
0.337077279941399,3.231847286224365,3
0.3265779514100841,3.234584093093872,3
0.3378097912342814,3.237326145172119,3
0.3492858014894395,3.2401607036590576,3
0.3612501526065192,3.2429006099700928,3
0.3531925283848125,3.245645761489868,3
0.355145891832499,3.248426675796509,3
0.3446465633011841,3.251197576522827,3
0.3519716762300084,3.2539334297180176,3
0.3766328897570503,3.256704330444336,3
0.3807837870833841,3.259441375732422,3
0.3690636063972652,3.2622132301330566,3
0.3768770601880111,3.2649896144866943,3
0.3722378219997557,3.267732620239258,3
0.3715053107068733,3.270623207092285,3
0.373214503723599,3.273413181304932,3
0.369307776828226,3.2761473655700684,3
0.3588084482969111,3.2788870334625244,3
0.3578317665730679,3.2816951274871826,3
0.351239164937126,3.284435987472534,3
0.3341472347698693,3.2871861457824707,3
0.3426931998534976,3.28999924659729,3
0.3419606885606152,3.2927355766296387,3
0.3329263826150652,3.2955150604248047,3
0.3273104627029666,3.298253297805786,3
0.3185203271883774,3.301022291183472,3
0.3094860212428274,3.3038089275360107,3
0.3160786228787693,3.306550979614258,3
0.3165669637406909,3.3092823028564453,3
0.3119277255524355,3.3120906352996826,3
0.3146136002930044,3.3148210048675537,3
0.3155902820168477,3.317560911178589,3
0.3097301916737882,3.3203718662261963,3
0.3180319863264558,3.323103666305542,3
0.3116835551214747,3.325838327407837,3
0.2977658405567085,3.32861590385437,3
0.294591624954218,3.331375360488892,3
0.2914174093517274,3.334122896194458,3
0.286778171163472,3.336909294128418,3
0.3080209986570625,3.339650154113769,3
0.3063118056403369,3.342423677444458,3
0.2938591136613355,3.345205068588257,3
0.2938591136613355,3.347947835922241,3
0.2931266023684531,3.350715398788452,3
0.290684898058845,3.3535101413726807,3
0.3107068733976315,3.356248140335083,3
0.3126602368453179,3.3589751720428467,3
0.3077768282261017,3.3617875576019287,3
0.3050909534855328,3.3645236492156982,3
0.3036259308997679,3.3673038482666016,3
0.2953241362471004,3.37007212638855,3
0.3160786228787693,3.372810840606689,3
0.3143694298620436,3.375624418258667,3
0.3043584421926504,3.3783652782440186,3
0.3028934196068855,3.381138563156128,3
0.300940056159199,3.38391375541687,3
0.295812477109022,3.386652946472168,3
0.3028934196068855,3.389390230178833,3
0.3006958857282382,3.392238140106201,3
0.2977658405567085,3.395057678222656,3
0.2970333292638261,3.397789001464844,3
0.2926382615065315,3.400606870651245,3
0.2850689781467463,3.40334415435791,3
0.2887315346111585,3.40608024597168,3
0.2884873641801977,3.408860206604004,3
0.2762788426321572,3.4116556644439697,3
0.2750579904773531,3.414395809173584,3
0.2762788426321572,3.417175531387329,3
0.2709070931510193,3.419945240020752,3
0.2862898303015504,3.422680616378784,3
0.2938591136613355,3.425461530685425,3
0.2872665120253936,3.4281914234161377,3
0.2977658405567085,3.430837631225586,3
0.3124160664143571,3.432229995727539,3
0.3094860212428274,3.433602809906006,3
0.3063118056403369,3.4349725246429443,3
0.3038701013307288,3.436340093612671,3
0.3011842265901598,3.437709331512451,3
0.3077768282261017,3.4390878677368164,3
0.3046026126236112,3.4405484199523926,3
0.3058234647784152,3.4419193267822266,3
0.3082651690880233,3.443288564682007,3
0.3028934196068855,3.44465446472168,3
0.2970333292638261,3.446023941040039,3
0.3024050787449639,3.447415590286255,3
0.2984983518495909,3.448781490325928,3
0.2970333292638261,3.450164556503296,3
0.2970333292638261,3.451533079147339,3
0.2965449884019044,3.4529008865356445,3
0.2933707727994139,3.4542665481567383,3
0.2967891588328653,3.4556572437286377,3
0.2923940910755707,3.4570252895355225,3
0.2911732389207666,3.4583935737609863,3
0.2921499206446099,3.4597747325897217,3
0.2831156146990599,3.461146593093872,3
0.2760346722011964,3.462515592575073,3
0.2821389329752166,3.4639036655426025,3
0.2814064216823342,3.465268135070801,3
0.2779880356488828,3.466635704040528,3
0.2743254791844707,3.468003749847412,3
0.2731046270296666,3.4693691730499268,3
0.2716396044439018,3.470754384994507,3
0.2787205469417653,3.472144365310669,3
0.2770113539250396,3.4735116958618164,3
0.276523013063118,3.474877119064331,3
0.2796972286656085,3.4762449264526367,3
0.2731046270296666,3.4776108264923096,3
0.268709559272372,3.4789748191833496,3
0.2716396044439018,3.4803781509399414,3
0.2704187522890977,3.4817440509796143,3
0.2672445366866072,3.4831085205078125,3
0.2638261506531558,3.4844720363616943,3
0.2665120253937247,3.485836267471313,3
0.2696862409962153,3.48721981048584,3
0.2843364668538639,3.4885878562927246,3
0.2901965571969234,3.4899778366088867,3
0.2872665120253936,3.491344928741455,3
0.2928824319374923,3.492711305618286,3
0.2887315346111585,3.494079113006592,3
0.2882431937492369,3.4954705238342285,3
0.3011842265901598,3.4968364238739014,3
0.3146136002930044,3.498201370239258,3
0.3121718959833963,3.4995827674865723,3
0.3077768282261017,3.5009725093841557,3
0.3077768282261017,3.502342700958252,3
0.3055792943474544,3.503733396530152,3
0.3072884873641801,3.5051023960113525,3
0.308753509949945,3.5064706802368164,3
0.3053351239164936,3.507838249206543,3
0.3053351239164936,3.5092077255249023,3
0.3011842265901598,3.510704755783081,3
0.3014283970211207,3.5120952129364014,3
0.300940056159199,3.513462543487549,3
0.3036259308997679,3.5148324966430664,3
0.2982541814186301,3.516197204589844,3
0.2948357953851788,3.517561912536621,3
0.2970333292638261,3.518926858901977,3
0.3004517152972774,3.520340204238892,3
0.3016725674520815,3.521706342697144,3
0.2989866927115125,3.5230743885040283,3
0.2960566475399828,3.5244388580322266,3
0.2977658405567085,3.525804281234741,3
0.2909290684898058,3.5271811485290527,3
0.2843364668538639,3.5285611152648926,3
0.2826272738371382,3.5299558639526367,3
0.2872665120253936,3.5313258171081543,3
0.2850689781467463,3.5335161685943604,3
0.2794530582346477,3.536304473876953,3
0.2850689781467463,3.5393402576446533,3
0.2814064216823342,3.542113780975342,3
0.2814064216823342,3.544896364212036,3
0.2774996947869612,3.5476291179656982,3
0.277743865217922,3.5503931045532227,3
0.2743254791844707,3.553170680999756,3
0.2831156146990599,3.555912494659424,3
0.2811622512513734,3.55865478515625,3
0.2753021609083139,3.561464548110962,3
0.2701745818581369,3.564199924468994,3
0.272616286167745,3.5669362545013428,3
0.2640703210841166,3.569707155227661,3
0.2648028323769991,3.5724682807922363,3
0.2621169576364301,3.575232744216919,3
0.2618727872054693,3.577964305877685,3
0.2618727872054693,3.580727815628052,3
0.2721279453058234,3.5835061073303223,3
0.2657795141008423,3.586236000061035,3
0.2699304114271761,3.588968515396118,3
0.2696862409962153,3.5917787551879883,3
0.2626052984983518,3.594512939453125,3
0.259675253326822,3.597251415252685,3
0.268709559272372,3.6000564098358154,3
0.2608961054816261,3.6027984619140625,3
0.2638261506531558,3.605533361434937,3
0.2672445366866072,3.608333826065064,3
0.2616286167745085,3.6111044883728023,3
0.2516176291051153,3.6138391494750977,3
0.2569893785862531,3.6166179180145264,3
0.2511292882431937,3.61934494972229,3
0.2489317543645464,3.622119426727295,3
0.2530826516908802,3.624933242797852,3
0.2525943108289585,3.627673387527466,3
0.2425833231595653,3.630438327789306,3
0.2499084360883896,3.6332178115844727,3
0.2460017091930166,3.635969400405884,3
0.2523501403979977,3.638706207275391,3
0.2567452081552923,3.641523361206055,3
0.2555243560004883,3.6442599296569824,3
0.2433158344524477,3.646998643875122,3
0.2518617995360761,3.649822950363159,3
0.2474667317787815,3.652571678161621,3
0.2594310828958612,3.65535044670105,3
0.2667561958246855,3.6580867767333984,3
0.2648028323769991,3.66085696220398,3
0.2523501403979977,3.6636321544647217,3
0.2608961054816261,3.66637134552002,3
0.2543035038456842,3.669110059738159,3
0.2667561958246855,3.671921491622925,3
0.2784763765108045,3.6746702194213863,3
0.2743254791844707,3.677411556243897,3
0.2652911732389207,3.680220127105713,3
0.2892198754730801,3.682953119277954,3
0.282871444268099,3.68569016456604,3
0.2862898303015504,3.688464403152466,3
0.2860456598705896,3.691229343414306,3
0.2836039555609815,3.6939640045166016,3
0.2716396044439018,3.696737289428711,3
0.2843364668538639,3.699475049972534,3
0.2782322060798436,3.7022452354431152,3
0.2799413990965693,3.7050259113311768,3
0.2897082163350017,3.707759141921997,3
0.2882431937492369,3.710524082183838,3
0.272616286167745,3.713308095932007,3
0.2804297399584909,3.716042280197144,3
0.2743254791844707,3.718773603439331,3
0.2784763765108045,3.721579790115357,3
0.2811622512513734,3.724325656890869,3
0.2862898303015504,3.727063655853272,3
0.2735929678915882,3.7298643589019775,3
0.2794530582346477,3.732604742050171,3
0.2723721157367842,3.735408067703247,3
0.2743254791844707,3.7381510734558105,3
0.2818947625442558,3.740947008132935,3
0.2774996947869612,3.743725299835205,3
0.2626052984983518,3.746464252471924,3
0.2704187522890977,3.749202251434326,3
0.259675253326822,3.753307580947876,3
0.2667561958246855,3.7560529708862314,3
0.267488707117568,3.758788347244263,3
0.2650470028079599,3.7616021633148193,3
0.259675253326822,3.7646191120147705,3
0.2530826516908802,3.767390251159668,3
0.2474667317787815,3.77018928527832,3
0.2447808570382126,3.773205518722534,3
0.2460017091930166,3.776004314422608,3
0.2430716640214869,3.778749227523804,3
0.244292516176291,3.7815194129943848,3
0.2391649371261139,3.7845611572265625,3
0.2379440849713099,3.7873053550720215,3
0.2462458796239774,3.790078401565552,3
0.2462458796239774,3.79285740852356,3
0.2398974484189964,3.795878648757935,3
0.2469783909168599,3.79862904548645,3
0.2425833231595653,3.801438570022583,3
0.2418508118666829,3.804454326629639,3
0.2530826516908802,3.8072335720062256,3
0.2508851178122329,3.810003280639648,3
0.236479062385545,3.812741041183472,3
0.2477109022097423,3.8157942295074463,3
0.2411183005738004,3.8185415267944336,3
0.2413624710047612,3.8213162422180176,3
0.2547918447076058,3.824098587036133,3
0.2481992430716639,3.827116250991821,3
0.2340373580759369,3.8298897743225098,3
0.2479550726407031,3.832674741744995,3
0.2411183005738004,3.835719347000122,3
0.2411183005738004,3.838482618331909,3
0.2481992430716639,3.841305494308472,3
0.2469783909168599,3.844048023223877,3
0.2342815285068977,3.8470652103424072,3
0.2452691979001342,3.849871873855591,3
0.2391649371261139,3.852611780166626,3
0.2413624710047612,3.855393648147583,3
0.2469783909168599,3.858422517776489,3
0.2438041753143693,3.8612024784088135,3
0.2359907215236234,3.864002943038941,3
0.2445366866072518,3.867021322250366,3
0.2433158344524477,3.869792222976685,3
0.2550360151385666,3.872574806213379,3
0.2613844463435477,3.875312089920044,3
0.2628494689293126,3.878321886062622,3
0.262361128067391,3.8811304569244394,3
0.2665120253937247,3.883863687515259,3
0.2618727872054693,3.886599063873291,3
0.272616286167745,3.8896195888519287,3
0.2723721157367842,3.892416477203369,3
0.267488707117568,3.895174264907837,3
0.2640703210841166,3.898203372955322,3
0.2652911732389207,3.9009850025177,3
0.263581980222195,3.903767347335816,3
0.2784763765108045,3.9064977169036874,3
0.2774996947869612,3.909501791000366,3
0.2709070931510193,3.912313938140869,3
0.2723721157367842,3.915051698684693,3
0.2660236845318031,3.917783737182617,3
0.263581980222195,3.92086672782898,3
0.2706629227200585,3.9236013889312735,3
0.2694420705652545,3.926332950592041,3
0.2594310828958612,3.929394245147705,3
0.2621169576364301,3.93216872215271,3
0.2557685264314491,3.93490481376648,3
0.2557685264314491,3.9376938343048096,3
0.2696862409962153,3.940755844116211,3
0.2665120253937247,3.9435315132141113,3
0.2523501403979977,3.9462640285491934,3
0.2601635941887437,3.948999166488648,3
0.2523501403979977,3.952084541320801,3
0.2491759247955072,3.95482873916626,3
0.2582102307410572,3.9575626850128174,3
0.2582102307410572,3.96063232421875,3
0.2430716640214869,3.963383913040161,3
0.2535709925528018,3.966121912002564,3
0.2452691979001342,3.9688992500305176,3
0.2508851178122329,3.971933841705322,3
0.2638261506531558,3.974679946899414,3
0.2626052984983518,3.977460384368897,3
0.2486875839335856,3.980237483978272,3
0.2555243560004883,3.983313798904419,3
0.2496642656574288,3.986061334609986,3
0.2528384812599193,3.988792896270752,3
0.2589427420339396,3.9917476177215576,3
0.2579660603100964,3.994621753692627,3
0.2477109022097423,3.997363328933716,3
0.2530826516908802,4.000166177749634,3
0.2472225613478207,4.003176212310791,3
0.2543035038456842,4.0059123039245605,3
0.2574777194481747,4.008687496185303,3
0.2518617995360761,4.011474847793579,3
0.2464900500549383,4.014486074447632,3
0.2508851178122329,4.01731276512146,3
0.2501526065193504,4.020169258117676,3
0.2547918447076058,4.023039102554321,3
0.2560126968624099,4.025911808013916,3
0.2516176291051153,4.028645038604736,3
0.2550360151385666,4.03145432472229,3
0.2601635941887437,4.03446364402771,3
0.2569893785862531,4.03753399848938,3
0.268709559272372,4.040385007858276,3
0.2667561958246855,4.043124675750732,3
0.2547918447076058,4.046147584915161,3
0.2608961054816261,4.048930644989014,3
0.2547918447076058,4.051696538925171,3
0.2543035038456842,4.054700613021851,3
0.2648028323769991,4.057482004165649,3
0.2652911732389207,4.060253143310547,3
0.2518617995360761,4.0629870891571045,3
0.2582102307410572,4.066034317016602,3
0.2503967769503112,4.068775415420532,3
0.2535709925528018,4.071667432785034,3
0.2660236845318031,4.074400901794434,3
0.2648028323769991,4.077422142028809,3
0.2501526065193504,4.080228567123413,3
0.2594310828958612,4.082957744598389,3
0.2518617995360761,4.0859534740448,3
0.2569893785862531,4.088735342025757,3
0.2660236845318031,4.091498851776123,3
0.267488707117568,4.094232797622681,3
0.2540593334147234,4.097274541854858,3
0.2618727872054693,4.100043296813965,3
0.2560126968624099,4.1027748584747314,3
0.2626052984983518,4.105547904968262,3
0.2706629227200585,4.108560562133789,3
0.268709559272372,4.111377000808716,3
0.2574777194481747,4.114121437072754,3
0.263581980222195,4.117059469223023,3
0.2591869124649004,4.1199610233306885,3
0.267488707117568,4.122701644897461,3
0.2672445366866072,4.12543535232544,3
0.2630936393602734,4.128471374511719,3
0.2579660603100964,4.13126802444458,3
0.2616286167745085,4.134009838104248,3
0.2569893785862531,4.1367833614349365,3
0.2667561958246855,4.139851331710815,3
0.2657795141008423,4.142589807510376,3
0.2606519350506653,4.1453728675842285,3
0.2594310828958612,4.148180723190308,3
0.2591869124649004,4.151175260543823,3
0.2569893785862531,4.153931617736816,3
0.2701745818581369,4.156667232513428,3
0.2677328775485288,4.15971565246582,3
0.259675253326822,4.1624908447265625,3
0.2621169576364301,4.16523289680481,3
0.2589427420339396,4.168008327484131,3
0.2567452081552923,4.1710522174835205,3
0.2677328775485288,4.173792123794556,3
0.2660236845318031,4.176574230194092,3
0.2538151629837626,4.179315567016602,3
0.2594310828958612,4.182350873947144,3
0.2530826516908802,4.185134172439575,3
0.2560126968624099,4.187873125076294,3
0.2684653888414112,4.190922975540161,3
0.268709559272372,4.1937010288238525,3
0.2560126968624099,4.196432828903198,3
0.2618727872054693,4.199177265167236,3
0.2521059699670369,4.202232599258423,3
0.2503967769503112,4.2049720287323,3
0.2616286167745085,4.207755565643311,3
0.2608961054816261,4.210523843765259,3
0.2452691979001342,4.213536262512207,3
0.2562568672933707,4.216325521469116,3
0.2491759247955072,4.219063997268677,3
0.2503967769503112,4.222111225128174,3
0.2586985716029788,4.224895000457764,3
0.2591869124649004,4.227638244628906,3
0.2457575387620558,4.230406999588013,3
0.2538151629837626,4.233457326889038,3
0.2481992430716639,4.236196517944336,3
0.2535709925528018,4.238937139511108,3
0.259675253326822,4.241767168045044,3
0.2577218898791356,4.244789123535156,3
0.2481992430716639,4.247570753097534,3
0.2543035038456842,4.250364780426025,3
0.2491759247955072,4.253385305404663,3
0.2574777194481747,4.256165266036987,3
0.2621169576364301,4.258898735046387,3
0.263581980222195,4.261665344238281,3
0.2567452081552923,4.264684677124023,3
0.2594310828958612,4.267415523529053,3
0.2547918447076058,4.270185708999634,3
0.2628494689293126,4.272960424423218,3
0.263581980222195,4.275968551635742,3
0.2579660603100964,4.278707027435303,3
0.2547918447076058,4.281516075134277,3
0.2547918447076058,4.284517765045166,3
0.2516176291051153,4.287292242050171,3
0.2626052984983518,4.290063858032227,3
0.2608961054816261,4.292794942855835,3
0.2535709925528018,4.295835733413696,3
0.2547918447076058,4.298576831817627,3
0.2508851178122329,4.301343679428101,3
0.2489317543645464,4.304125547409058,3
0.2601635941887437,4.307137727737427,3
0.2586985716029788,4.309983491897583,3
0.2499084360883896,4.312778234481812,3
0.2540593334147234,4.315777540206909,3
0.2477109022097423,4.318523406982422,3
0.2462458796239774,4.321334600448608,3
0.2538151629837626,4.32407021522522,3
0.2543035038456842,4.327102899551392,3
0.2423391527286045,4.329889535903931,3
0.2501526065193504,4.332618713378906,3
0.2425833231595653,4.335389852523804,3
0.2428274935905261,4.338413715362549,3
0.2543035038456842,4.341197967529297,3
0.2538151629837626,4.344014644622803,3
0.2406299597118788,4.347033500671387,3
0.2508851178122329,4.349795579910278,3
0.2433158344524477,4.3525800704956055,3
0.2440483457453302,4.355320930480957,3
0.2530826516908802,4.358327388763428,3
0.2518617995360761,4.36114501953125,0
0.2394091075570747,4.363888740539551,0
0.2491759247955072,4.366629362106323,0
0.2423391527286045,4.369668006896973,0
0.2481992430716639,4.372469902038574,0
0.2543035038456842,4.375263929367065,0
0.2521059699670369,4.378262281417847,0
0.2413624710047612,4.381037473678589,0
0.2491759247955072,4.383817911148071,0
0.2452691979001342,4.386558294296265,0
0.2506409473812721,4.389561891555786,0
0.2538151629837626,4.392373323440552,0
0.2508851178122329,4.395112752914429,0
0.2452691979001342,4.39785099029541,0
0.2491759247955072,4.401670694351196,0
0.2477109022097423,4.404415607452393,0
0.2601635941887437,4.407172203063965,0
0.2577218898791356,4.409955978393555,0
0.2484434135026247,4.412695646286011,0
0.2523501403979977,4.415459394454956,0
0.2496642656574288,4.418198108673096,0
0.2457575387620558,4.420969247817993,0
0.2567452081552923,4.42375373840332,0
0.2557685264314491,4.426487922668457,0
0.2477109022097423,4.429227352142334,0
0.2499084360883896,4.432040691375732,0
0.2469783909168599,4.434781551361084,0
0.2440483457453302,4.43752121925354,0
0.2547918447076058,4.4403462409973145,0
0.2528384812599193,4.44308352470398,0
0.245513368331095,4.445828199386597,0
0.2472225613478207,4.448610305786133,0
0.2452691979001342,4.451387166976929,0
0.2430716640214869,4.45412802696228,0
0.2535709925528018,4.456909894943237,0
0.2523501403979977,4.459641695022583,0
0.2469783909168599,4.462402820587158,0
0.2477109022097423,4.465181112289429,0
0.2464900500549383,4.467911958694458,0
0.2452691979001342,4.470675230026245,0
0.2540593334147234,4.4734508991241455,0
0.2508851178122329,4.476174831390381,0
0.2464900500549383,4.478908538818359,0
0.2452691979001342,4.481716394424439,0
0.2460017091930166,4.484448671340942,0
0.2423391527286045,4.487218856811523,0
0.2513734586741545,4.49001669883728,0
0.2508851178122329,4.492746353149414,0
0.2464900500549383,4.49552321434021,0
0.2440483457453302,4.498265504837036,0
0.2464900500549383,4.50102972984314,0
0.2418508118666829,4.5038063526153564,0
0.2501526065193504,4.506542682647705,0
0.2499084360883896,4.509288311004639,0
0.2452691979001342,4.512097597122192,0
0.2420949822976437,4.514841794967651,0
0.2433158344524477,4.517578125,0
0.2386765962641923,4.520379781723023,0
0.2469783909168599,4.523115634918213,0
0.2481992430716639,4.5258519649505615,0
0.2447808570382126,4.528634071350098,0
0.2398974484189964,4.531401634216309,0
0.2411183005738004,4.534140586853027,0
0.2355023806617018,4.537217140197754,0
0.2462458796239774,4.540008068084717,0
0.2464900500549383,4.542743682861328,0
0.2435600048834085,4.545536041259766,0
0.241606641435722,4.5482707023620605,0
0.2430716640214869,4.551295518875122,0
0.2391649371261139,4.554041624069214,0
0.2496642656574288,4.556791543960571,0
0.2469783909168599,4.559572458267212,0
0.244292516176291,4.562338352203369,0
0.2435600048834085,4.565075874328613,0
0.244292516176291,4.567856550216675,0
0.2428274935905261,4.570626735687256,0
0.2528384812599193,4.573355674743652,0
0.2503967769503112,4.576128482818604,0
0.2457575387620558,4.578864097595215,0
0.2433158344524477,4.581629991531372,0
0.2464900500549383,4.584409475326538,0
0.2411183005738004,4.58714771270752,0
0.2491759247955072,4.589913606643677,0
0.2489317543645464,4.592700481414795,0
0.244292516176291,4.595432758331299,0
0.240385789280918,4.598162651062012,0
0.2430716640214869,4.600977897644043,0
0.2381882554022707,4.603715419769287,0
0.2464900500549383,4.606452703475952,0
0.2484434135026247,4.609230756759644,0
0.2460017091930166,4.612023115158081,0
0.2406299597118788,4.614755868911743,0
0.2462458796239774,4.617539644241333,0
0.2418508118666829,4.62031102180481,0
0.2479550726407031,4.6230528354644775,0
0.2491759247955072,4.625825643539429,0
0.2481992430716639,4.628564119338989,0
0.2413624710047612,4.631397247314453,0
0.2452691979001342,4.634133100509644,0
0.2406299597118788,4.636874675750732,0
0.2469783909168599,4.63965916633606,0
0.2484434135026247,4.642446994781494,0
0.2479550726407031,4.64519739151001,0
0.240385789280918,4.6479809284210205,0
0.2450250274691734,4.650760173797607,0
0.2391649371261139,4.653500556945801,0
0.2445366866072518,4.6562793254852295,0
0.2474667317787815,4.659021854400635,0
0.2464900500549383,4.661791563034058,0
0.2389207666951531,4.66457462310791,0
0.2440483457453302,4.667313814163208,0
0.2406299597118788,4.6700828075408936,0
0.2452691979001342,4.672861337661743,0
0.2489317543645464,4.675599575042725,0
0.2474667317787815,4.6783435344696045,0
0.2372115736784275,4.681153059005737,0
0.2445366866072518,4.6838929653167725,0
0.2386765962641923,4.686633825302124,0
0.2452691979001342,4.689414978027344,0
0.2491759247955072,4.692191123962402,0
0.2499084360883896,4.694937467575073,0
0.2398974484189964,4.697746753692627,0
0.2491759247955072,4.700517177581787,0
0.2428274935905261,4.703289747238159,0
0.2472225613478207,4.706029415130615,0
0.2511292882431937,4.708756446838379,0
0.2491759247955072,4.711565732955933,0
0.2367232328165058,4.714298248291016,0
0.2452691979001342,4.717034101486206,0
0.2406299597118788,4.719835042953491,0
0.2420949822976437,4.722574472427368,0
0.2469783909168599,4.725313663482666,0
0.2479550726407031,4.728095769882202,0
0.235258210230741,4.730878591537476,0
0.2462458796239774,4.733617305755615,0
0.2406299597118788,4.736400127410889,0
0.2440483457453302,4.739142417907715,0
0.2503967769503112,4.741934299468994,0
0.2511292882431937,4.744728326797485,0
0.2381882554022707,4.747469902038574,0
0.2479550726407031,4.7502522468566895,0
0.2406299597118788,4.753030061721802,0
0.2425833231595653,4.7557666301727295,0
0.2501526065193504,4.758491039276123,0
0.2521059699670369,4.761294841766357,0
0.240385789280918,4.764032125473023,0
0.2528384812599193,4.7667622566223145,0
0.2462458796239774,4.769530773162842,0
0.2472225613478207,4.772301912307739,0
0.2550360151385666,4.775037050247192,0
0.2560126968624099,4.777803659439087,0
0.2423391527286045,4.780570030212402,0
0.2511292882431937,4.783348560333252,0
0.2433158344524477,4.786082029342651,0
0.244292516176291,4.788818597793579,0
0.2516176291051153,4.791621685028076,0
0.2538151629837626,4.794360876083374,0
0.2401416188499572,4.7970898151397705,0
0.2518617995360761,4.7998998165130615,0
0.2445366866072518,4.802641153335571,0
0.2452691979001342,4.80538010597229,0
0.2550360151385666,4.808151960372925,0
0.2557685264314491,4.81091570854187,0
0.2425833231595653,4.81364893913269,0
0.2535709925528018,4.816426038742065,0
0.2452691979001342,4.819167375564575,0
0.2462458796239774,4.821934223175049,0
0.2582102307410572,4.824709177017212,0
0.259675253326822,4.827445268630981,0
0.2474667317787815,4.830213308334351,0
0.2574777194481747,4.832988023757935,0
0.2491759247955072,4.835728645324707,0
0.2491759247955072,4.838470458984375,0
0.2613844463435477,4.841280698776245,0
0.2616286167745085,4.844023942947388,0
0.2496642656574288,4.846764802932739,0
0.2579660603100964,4.8495402336120605,0
0.2501526065193504,4.852332830429077,0
0.2489317543645464,4.85509204864502,0
0.2579660603100964,4.857847929000855,0
0.2594310828958612,4.860615491867065,0
0.2481992430716639,4.863394975662232,0
0.2569893785862531,4.866129159927368,0
0.2518617995360761,4.868863105773926,0
0.2496642656574288,4.871672868728638,0
0.2608961054816261,4.874412536621094,0
0.259675253326822,4.877147197723389,0
0.2491759247955072,4.879956960678101,0
0.2547918447076058,4.882694959640503,0
0.2484434135026247,4.885431289672852,0
0.2481992430716639,4.888242483139038,0
0.258454401172018,4.891012668609619,0
0.2594310828958612,4.893741607666016,0
0.249420095226468,4.8965208530426025,0
0.2535709925528018,4.899255990982056,0
0.2501526065193504,4.902026891708374,0
0.2474667317787815,4.904811382293701,0
0.2577218898791356,4.907553911209106,0
0.2562568672933707,4.910321474075317,0
0.2469783909168599,4.913102149963379,0
0.2518617995360761,4.915839195251465,0
0.2491759247955072,4.9185791015625,0
0.2450250274691734,4.92139458656311,0
0.2552801855695275,4.924132823944092,0
0.2543035038456842,4.926863431930542,0
0.2469783909168599,4.929644346237183,0
0.2511292882431937,4.932405233383179,0
0.249420095226468,4.935163974761963,0
0.2452691979001342,4.937925338745117,0
0.2560126968624099,4.940687894821167,0
0.2518617995360761,4.943471193313599,0
0.2464900500549383,4.946206331253052,0
0.2489317543645464,4.94894289970398,0
0.2469783909168599,4.95176362991333,0
0.2430716640214869,4.954511404037476,0
0.2530826516908802,4.957245826721191,0
0.2518617995360761,4.960052251815796,0
0.2462458796239774,4.962786436080933,0
0.2481992430716639,4.965521574020386,0
0.2462458796239774,4.968307018280029,0
0.244292516176291,4.9711010456085205,0
0.2523501403979977,4.9738383293151855,0
0.2501526065193504,4.97661018371582,0
0.2450250274691734,4.9793477058410645,0
0.2460017091930166,4.982122898101807,0
0.2481992430716639,4.9848997592926025,0
0.2418508118666829,4.9876463413238525,0
0.2508851178122329,4.9904258251190186,0
0.2501526065193504,4.993195533752441,0
0.244292516176291,4.995936155319214,0
0.245513368331095,4.998680353164673,0
0.2477109022097423,5.001491785049439,0
0.2428274935905261,5.004230976104736,0
0.2560126968624099,5.006966829299927,0
0.2543035038456842,5.009733200073242,0
0.2503967769503112,5.012490510940552,0
0.249420095226468,5.015263557434082,0
0.2508851178122329,5.0180511474609375,0
0.2462458796239774,5.020906925201416,0
0.2530826516908802,5.023690462112427,0
0.2513734586741545,5.026429891586304,0
0.2501526065193504,5.02915620803833,0
0.2481992430716639,5.031965255737305,0
0.2499084360883896,5.034715175628662,0
0.2477109022097423,5.0377631187438965,0
0.2550360151385666,5.040582656860352,0
0.2538151629837626,5.043327331542969,0
0.2484434135026247,5.046061992645264,0
0.2491759247955072,5.04888129234314,0
0.2491759247955072,5.051669120788574,0
0.2447808570382126,5.054407596588135,0
0.2543035038456842,5.057183265686035,0
0.2530826516908802,5.060039043426514,0
0.2479550726407031,5.062780857086182,0
0.2491759247955072,5.06556510925293,0
0.2484434135026247,5.068303346633911,0
0.2452691979001342,5.071096658706665,0
0.2557685264314491,5.0738606452941895,0
0.2550360151385666,5.0765907764434814,0
0.2523501403979977,5.079360485076904,0
0.2525943108289585,5.08212947845459,0
0.2523501403979977,5.084863662719727,0
0.2469783909168599,5.087646007537842,0
0.254547674276645,5.09043288230896,0
0.2550360151385666,5.093167543411255,0
0.2511292882431937,5.095937728881836,0
0.2503967769503112,5.098665714263916,0
0.2518617995360761,5.101437330245972,0
0.2474667317787815,5.104223966598511,0
0.2540593334147234,5.106954336166382,0
0.2538151629837626,5.109690189361572,0
0.2499084360883896,5.11249566078186,0
0.2464900500549383,5.115231513977051,0
0.2489317543645464,5.117966651916504,0
0.2481992430716639,5.120775699615479,0
0.2560126968624099,5.12351131439209,0
0.2550360151385666,5.126245737075806,0
0.254547674276645,5.12901782989502,0
0.2499084360883896,5.131787538528442,0
0.2557685264314491,5.134527683258057,0
0.2501526065193504,5.137295961380005,0
0.2567452081552923,5.1400673389434814,0
0.2572335490172139,5.142810106277466,0
0.2535709925528018,5.145611763000488,0
0.2481992430716639,5.148357391357422,0
0.2530826516908802,5.151139974594116,0
0.2474667317787815,5.153903007507324,0
0.2543035038456842,5.156636953353882,0
0.2560126968624099,5.159415006637573,0
0.2518617995360761,5.162183523178101,0
0.2457575387620558,5.164927244186401,0
0.2530826516908802,5.167697906494141,0
0.2477109022097423,5.170472860336304,0
0.2540593334147234,5.173206329345703,0
0.2562568672933707,5.175979375839233,0
0.2540593334147234,5.178706407546997,0
0.2469783909168599,5.181472539901733,0
0.2562568672933707,5.1842451095581055,0
0.2496642656574288,5.186985969543457,0
0.2530826516908802,5.18971586227417,0
0.2574777194481747,5.192517757415772,0
0.2560126968624099,5.195250749588013,0
0.2469783909168599,5.197989463806152,0
0.2562568672933707,5.200793027877808,0
0.2499084360883896,5.203536510467529,0
0.2530826516908802,5.206268310546875,0
0.258454401172018,5.209045886993408,0
0.2574777194481747,5.2118353843688965,0
0.2457575387620558,5.214576721191406,0
0.2569893785862531,5.217355489730835,0
0.2501526065193504,5.220116376876831,0
0.2516176291051153,5.222852945327759,0
0.2591869124649004,5.22563362121582,0
0.259675253326822,5.22836971282959,0
0.2469783909168599,5.23116135597229,0
0.2577218898791356,5.233910322189331,0
0.2501526065193504,5.236638307571411,0
0.2499084360883896,5.239416837692261,0
0.2562568672933707,5.242189884185791,0
0.2550360151385666,5.244928359985352,0
0.240385789280918,5.247714281082153,0
0.2521059699670369,5.250484228134155,0
0.2460017091930166,5.25322699546814,0
0.2464900500549383,5.256005525588989,0
0.2518617995360761,5.258741855621338,0
0.2535709925528018,5.261502504348755,0
0.2401416188499572,5.264288663864136,0
0.2535709925528018,5.267024755477905,0
0.2462458796239774,5.26986575126648,0
0.2462458796239774,5.272647857666016,0
0.2530826516908802,5.2753822803497314,0
0.2535709925528018,5.278112888336182,0
0.2381882554022707,5.280925512313843,0
0.2499084360883896,5.283669948577881,0
0.2423391527286045,5.286404371261597,0
0.2423391527286045,5.289184093475342,0
0.2521059699670369,5.291942119598389,0
0.2530826516908802,5.294677257537842,0
0.2381882554022707,5.297457456588745,0
0.2518617995360761,5.3002214431762695,0
0.244292516176291,5.30295729637146,0
0.2450250274691734,5.305738687515259,0
0.2577218898791356,5.308476686477661,0
0.2540593334147234,5.311278343200684,0
0.2398974484189964,5.3140130043029785,0
0.2511292882431937,5.316745758056641,0
0.2425833231595653,5.319530487060547,0
0.2401416188499572,5.322304248809815,0
0.2503967769503112,5.325035333633423,0
0.2508851178122329,5.327809810638428,0
0.2384324258332315,5.330603361129761,0
0.2496642656574288,5.3333420753479,0
0.2425833231595653,5.336118459701538,0
0.2423391527286045,5.33885669708252,0
0.2535709925528018,5.341622114181519,0
0.253326822121841,5.344410181045532,0
0.2411183005738004,5.347158670425415,0
0.2491759247955072,5.349924087524414,0
0.2423391527286045,5.352703332901001,0
0.2408741301428396,5.355442762374878,0
0.2523501403979977,5.358175039291382,0
0.2516176291051153,5.3609840869903564,0
0.2389207666951531,5.363722562789917,0
0.2477109022097423,5.366459608078003,0
0.2418508118666829,5.369237184524536,0
0.2423391527286045,5.37200927734375,0
0.2540593334147234,5.374739646911621,0
0.2550360151385666,5.377507925033569,0
0.2433158344524477,5.38027024269104,0
0.2508851178122329,5.383000373840332,0
0.2452691979001342,5.385773658752441,0
0.2435600048834085,5.3885133266448975,0
0.2562568672933707,5.391310214996338,0
0.2555243560004883,5.394046545028687,0
0.2440483457453302,5.396784067153931,0
0.2523501403979977,5.399603366851807,0
0.2479550726407031,5.4023756980896,0
0.2457575387620558,5.405110120773315,0
0.2560126968624099,5.407876968383789,0
0.2557685264314491,5.410649061203003,0
0.2460017091930166,5.413400888442993,0
0.2516176291051153,5.416173696517944,0
0.2477109022097423,5.418909072875977,0
0.2452691979001342,5.4216718673706055,0
0.2555243560004883,5.424447536468506,0
0.2547918447076058,5.427175998687744,0
0.2452691979001342,5.430102825164795,0
0.2496642656574288,5.43402910232544,0
0.2433158344524477,5.4367759227752686,0
0.2464900500549383,5.439552307128906,0
0.2530826516908802,5.442584753036499,0
0.2530826516908802,5.445329189300537,0
0.2425833231595653,5.448111295700073,0
0.2525943108289585,5.450908899307251,0
0.2457575387620558,5.453932046890259,0
0.2511292882431937,5.456714153289795,0
0.2555243560004883,5.459450960159302,0
0.2518617995360761,5.462221145629883,0
0.2462458796239774,5.4652650356292725,0
0.2516176291051153,5.467992067337036,0
0.2469783909168599,5.47076153755188,0
0.2535709925528018,5.47380256652832,0
0.2557685264314491,5.476541757583618,0
0.2511292882431937,5.479310750961304,0
0.2472225613478207,5.482078790664673,0
0.2528384812599193,5.485079526901245,0
0.2472225613478207,5.487862348556519,0
0.2574777194481747,5.490649938583374,0
0.2574777194481747,5.493390083312988,0
0.2511292882431937,5.496443510055542,0
0.253326822121841,5.4991843700408936,0
0.2530826516908802,5.501948356628418,0
0.2496642656574288,5.504993915557861,0
0.2613844463435477,5.507732629776001,0
0.2586985716029788,5.510518312454224,0
0.2503967769503112,5.513290882110596,0
0.2538151629837626,5.51630163192749,0
0.2499084360883896,5.519049882888794,0
0.2477109022097423,5.521860837936401,0
0.2577218898791356,5.524593830108643,0
0.2577218898791356,5.527644634246826,0
0.2457575387620558,5.530424356460571,0
0.2535709925528018,5.533159017562866,0
0.2481992430716639,5.536191463470459,0
0.2469783909168599,5.5392279624938965,0
0.2577218898791356,5.542004346847534,0
0.2574777194481747,5.54478931427002,0
0.2430716640214869,5.547824382781982,0
0.2530826516908802,5.550607204437256,0
0.2457575387620558,5.553394556045532,0
0.2469783909168599,5.556135177612305,0
0.2560126968624099,5.559152603149414,0
0.2555243560004883,5.561939716339111,0
0.2430716640214869,5.564675331115723,0
0.2503967769503112,5.56769609451294,0
0.2425833231595653,5.570507764816284,0
0.2462458796239774,5.573246955871582,0
0.2499084360883896,5.576028823852539,0
0.2508851178122329,5.579035520553589,0
0.2420949822976437,5.581809759140015,0
0.2481992430716639,5.584595441818237,0
0.2440483457453302,5.587331056594849,0
0.2511292882431937,5.590582370758057,0
0.2521059699670369,5.5933678150177,0
0.2462458796239774,5.596100330352783,0
0.2440483457453302,5.599128246307373,0
0.2452691979001342,5.601925611495972,0
0.2413624710047612,5.604666709899902,0
0.2496642656574288,5.6074538230896,0
0.2474667317787815,5.610502004623413,0
0.240385789280918,5.6132423877716064,0
0.2440483457453302,5.61602258682251,0
0.2420949822976437,5.618759393692017,0
0.2420949822976437,5.621800184249878,0
0.254547674276645,5.624579429626465,0
0.2538151629837626,5.627320289611816,0
0.2440483457453302,5.630358695983887,0
0.2499084360883896,5.633139848709106,0
0.2440483457453302,5.635882377624512,0
0.2423391527286045,5.63862156867981,0
0.2523501403979977,5.641707181930542,0
0.2528384812599193,5.644443511962891,0
0.240385789280918,5.647233724594116,0
0.2484434135026247,5.650022029876709,0
0.2413624710047612,5.653042554855347,0
0.2423391527286045,5.655847072601318,0
0.2538151629837626,5.658587694168091,0
0.2538151629837626,5.661626100540161,0
0.2389207666951531,5.664406061172485,0
0.2503967769503112,5.667135238647461,0
0.2430716640214869,5.669903993606567,0
0.2433158344524477,5.672950506210327,0
0.2540593334147234,5.675684213638306,0
0.2560126968624099,5.678418874740601,0
0.2425833231595653,5.681230068206787,0
0.2499084360883896,5.684252738952637,0
0.2440483457453302,5.686997890472412,0
0.2469783909168599,5.689815044403076,0
0.2535709925528018,5.692829608917236,0
0.2508851178122329,5.695608377456665,0
0.2411183005738004,5.698346614837647,0
0.2481992430716639,5.701117277145386,0
0.2423391527286045,5.704160928726196,0
0.2474667317787815,5.706901550292969,0
0.2484434135026247,5.709645748138428,0
0.2479550726407031,5.712460994720459,0
0.2425833231595653,5.715476989746094,0
0.2462458796239774,5.718224287033081,0
0.2423391527286045,5.721041917800903,0
0.2496642656574288,5.724048137664795,0
0.2518617995360761,5.726795673370361,0
0.2469783909168599,5.729575395584106,0
0.2452691979001342,5.732343673706055,0
0.2469783909168599,5.735396146774292,0
0.2433158344524477,5.738140821456909,0
0.2528384812599193,5.740917921066284,0
0.2518617995360761,5.7436933517456055,0
0.2438041753143693,5.746726036071777,0
0.2462458796239774,5.749478816986084,0
0.2445366866072518,5.752315998077393,0
0.2420949822976437,5.755326509475708,0
0.2550360151385666,5.7580726146698,0
0.2550360151385666,5.760920763015747,0
0.2447808570382126,5.763664722442627,0
0.2516176291051153,5.766675233840942,0
0.2460017091930166,5.769456386566162,0
0.2425833231595653,5.7722272872924805,0
0.2535709925528018,5.774960279464722,0
0.2530826516908802,5.778009653091431,0
0.2394091075570747,5.780785083770752,0
0.2503967769503112,5.783558130264282,0
0.2430716640214869,5.7864320278167725,0
0.2430716640214869,5.789308547973633,0
0.2547918447076058,5.792118072509766,0
0.2547918447076058,5.794851779937744,0
0.2411183005738004,5.797862768173218,0
0.2518617995360761,5.8006751537323,0
0.2445366866072518,5.803416967391968,0
0.2460017091930166,5.806159019470215,0
0.2540593334147234,5.809194326400757,0
0.2530826516908802,5.811994791030884,0
0.2398974484189964,5.814733028411865,0
0.2481992430716639,5.81751561164856,0
0.2425833231595653,5.820563554763794,0
0.2464900500549383,5.823348522186279,0
0.2523501403979977,5.8260884284973145,0
0.2523501403979977,5.829099655151367,0
0.2413624710047612,5.831915616989136,0
0.2496642656574288,5.834659814834595,0
0.2438041753143693,5.837394714355469,0
0.2499084360883896,5.84047794342041,0
0.2501526065193504,5.843203544616699,0
0.2457575387620558,5.845943450927734,0
0.240385789280918,5.848738193511963,0
0.2425833231595653,5.851790189743042,0
0.2381882554022707,5.854530811309815,0
0.2489317543645464,5.8573157787323,0
0.2496642656574288,5.860351085662842,0
0.2423391527286045,5.8631110191345215,0
0.2440483457453302,5.865870952606201,0
0.2428274935905261,5.868608474731445,0
0.2342815285068977,5.871692895889282,0
0.2413624710047612,5.874437570571899,0
0.2423391527286045,5.877173900604248,0
0.2362348919545842,5.879983901977539,0
0.2398974484189964,5.883007526397705,0
0.2369674032474666,5.885746002197266,0
0.2345256989378585,5.888805150985718,0
0.2474667317787815,5.892028093338013,0
0.2481992430716639,5.895966291427612,0
0.240385789280918,5.899333238601685,0
0.2411183005738004,5.902560234069824,0
0.2384324258332315,5.905863046646118,0
0.2528384812599193,5.909008502960205,0
0.2508851178122329,5.912270784378052,0
0.2394091075570747,5.915242671966553,0
0.2472225613478207,5.918299198150635,0
0.2433158344524477,5.921921730041504,0
0.2538151629837626,5.9250030517578125,0
0.2547918447076058,5.928199529647827,0
0.2418508118666829,5.931856632232666,0
0.2462458796239774,5.935098886489868,0
0.2440483457453302,5.938241720199585,0
0.2567452081552923,5.941789627075195,0
0.2591869124649004,5.945013999938965,0
0.2477109022097423,5.948077440261841,0
0.2572335490172139,5.951501846313477,0
0.2499084360883896,5.954644441604614,0
0.2630936393602734,5.957739353179932,0
0.2601635941887437,5.961249113082886,0
0.2477109022097423,5.964148998260498,0
0.2640703210841166,5.967207193374634,0
0.2569893785862531,5.970905303955078,0
0.2626052984983518,5.973746061325073,0
0.2648028323769991,5.976584196090698,0
0.2567452081552923,5.9799416065216064,0
0.2557685264314491,5.983481645584106,0
0.2491759247955072,5.986281633377075,0
0.2440483457453302,5.989120006561279,0
0.2599194237577829,5.992772340774536,0
0.2652911732389207,5.995901584625244,0
0.259675253326822,5.998934268951416,0
0.2648028323769991,6.002597808837891,0
0.2618727872054693,6.005707025527954,0
0.286778171163472,6.008868217468262,0
0.2809180808204126,6.012548446655273,0
0.2694420705652545,6.015749454498291,0
0.2706629227200585,6.01884651184082,0
0.2565010377243315,6.022435665130615,0
0.2499084360883896,6.025426626205444,0
0.2543035038456842,6.02862811088562,0
0.244292516176291,6.03227972984314,0
0.2518617995360761,6.035179615020752,0
0.2501526065193504,6.038565397262573,3
0.2645586619460383,6.041980743408203,3
0.2648028323769991,6.045056819915772,3
0.2499084360883896,6.048200607299805,3
0.259675253326822,6.051502466201782,3
0.2577218898791356,6.054435968399048,3
0.2694420705652545,6.057726144790649,3
0.2691979001342937,6.061205863952637,3
0.2618727872054693,6.064054012298584,3
0.2696862409962153,6.066991806030273,3
0.263581980222195,6.070414781570435,3
0.2735929678915882,6.073569297790527,3
0.2721279453058234,6.076608180999756,3
0.2704187522890977,6.080066919326782,3
0.2626052984983518,6.084517240524292,3
0.2543035038456842,6.087768316268921,3
0.2457575387620558,6.090921640396118,3
0.2464900500549383,6.0940892696380615,3
0.2411183005738004,6.097292900085449,3
0.2472225613478207,6.100507736206055,3
0.2398974484189964,6.103553295135498,3
0.2518617995360761,6.106688499450684,3
0.2652911732389207,6.10986852645874,3
0.2660236845318031,6.112812042236328,3
0.2679770479794896,6.115873575210571,3
0.276523013063118,6.1188178062438965,3
0.2704187522890977,6.1219704151153564,3
0.2840922964229031,6.124992847442627,3
0.2821389329752166,6.1278908252716064,3
0.268709559272372,6.131148099899292,3
0.2770113539250396,6.134204149246216,3
0.2682212184104504,6.1372363567352295,3
0.2679770479794896,6.140161037445068,3
0.272616286167745,6.14320182800293,3
0.267488707117568,6.1462721824646,3
0.2638261506531558,6.149367809295654,3
0.2655353436698815,6.152645111083984,3
0.2582102307410572,6.1557936668396,3
0.2689537297033328,6.158990144729614,3
0.2684653888414112,6.16230320930481,3
0.2562568672933707,6.165374517440796,3
0.259675253326822,6.168647527694702,3
0.2586985716029788,6.1718363761901855,3
0.2767671834940788,6.174978971481323,3
0.2784763765108045,6.177955627441406,3
0.2718837748748626,6.181222438812256,3
0.2784763765108045,6.184428453445435,3
0.272616286167745,6.187273263931274,3
0.2840922964229031,6.190542697906494,3
0.2887315346111585,6.193469762802124,3
0.2980100109876693,6.196241855621338,3
0.290684898058845,6.198979616165161,3
0.2894640459040409,6.201821327209473,3
0.2794530582346477,6.204557657241821,3
0.276523013063118,6.207329273223877,3
0.2753021609083139,6.2101099491119385,3
0.2743254791844707,6.212844610214233,3
0.2667561958246855,6.215625286102295,3
0.2691979001342937,6.218362331390381,3
0.2716396044439018,6.22115159034729,3
0.2784763765108045,6.223928928375244,3
0.2774996947869612,6.226666927337647,3
0.2770113539250396,6.22939920425415,3
0.2716396044439018,6.232206583023071,3
0.2760346722011964,6.234937906265259,3
0.2704187522890977,6.23767352104187,3
0.2716396044439018,6.240495443344116,3
0.2696862409962153,6.243236780166626,3
0.2699304114271761,6.245972633361816,3
0.2613844463435477,6.248743772506714,3
0.2655353436698815,6.251546621322632,3
0.2633378097912342,6.2542901039123535,3
0.2772555243560004,6.257075071334839,3
0.2823831034061774,6.259849309921265,3
0.2806739103894518,6.262589693069458,3
0.2750579904773531,6.265363931655884,3
0.2794530582346477,6.268090486526489,3
0.2738371383225491,6.270865201950073,3
0.2799413990965693,6.27363920211792,3
0.2853131485777072,6.276376962661743,3
0.2774996947869612,6.279129981994629,3
0.2655353436698815,6.281939506530762,3
0.276523013063118,6.284671545028687,3
0.268709559272372,6.287446022033691,3
0.2655353436698815,6.290236949920654,3
0.2699304114271761,6.292970180511475,3
0.2652911732389207,6.295746564865112,3
0.2589427420339396,6.298478841781616,3
0.2684653888414112,6.301250457763672,3
0.2628494689293126,6.304024934768677,3
0.259675253326822,6.306757926940918,3
0.2608961054816261,6.309498071670532,3
0.2586985716029788,6.3124189376831055,3
0.2484434135026247,6.315159559249878,3
0.2555243560004883,6.317896604537964,3
0.2538151629837626,6.320713758468628,3
0.2814064216823342,6.323447227478027,3
0.2894640459040409,6.326177358627319,3
0.2838481259919423,6.3289525508880615,3
0.2804297399584909,6.33172082901001,3
0.3004517152972774,6.33445405960083,3
0.2933707727994139,6.337232828140259,3
0.2992308631424734,6.340007781982422,3
0.3097301916737882,6.342742443084717,3
0.3004517152972774,6.345520734786987,3
0.2909290684898058,6.348257541656494,3
0.3136369185691612,6.35103702545166,3
0.3046026126236112,6.353828191757202,3
0.2984983518495909,6.356563568115234,3
0.3143694298620436,6.359344244003296,3
0.3050909534855328,6.362136125564575,3
0.290684898058845,6.364873647689819,3
0.3102185325357098,6.367651462554932,3
0.3036259308997679,6.370428085327148,3
0.3097301916737882,6.373165845870972,3
0.3273104627029666,6.375947713851929,3
0.3251129288243193,6.378692388534546,3
0.3116835551214747,6.381465196609497,3
0.3182761567574166,6.384246587753296,3
0.3085093395189842,6.386988162994385,3
0.3146136002930044,6.389724016189575,3
0.3253570992552801,6.3925299644470215,3
0.3312171895983395,6.395272731781006,3
0.3224270540837504,6.398008108139038,3
0.3226712245147112,6.400816440582275,3
0.3165669637406909,6.403545618057251,3
0.3182761567574166,6.406274557113648,3
0.3219387132218287,6.409049987792969,3
0.3194970089122206,6.411832571029663,3
0.304846783054572,6.414571285247803,3
0.3202295202051031,6.417357921600342,3
0.3136369185691612,6.420167922973633,3
0.3292638261506531,6.423008680343628,3
0.3395189842510071,6.425792932510376,3
0.3441582224392625,6.428533554077148,3
0.3380539616652422,6.43135404586792,3
0.3622268343303625,6.434094905853272,3
0.3534366988157733,6.436830997467041,3
0.3529483579538517,6.439610004425049,3
0.3614943230374801,6.442382574081421,3
0.3497741423513612,6.4451212882995605,3
0.3336588939079477,6.4478981494903564,3
0.3414723476986936,6.450672388076782,3
0.3309730191673787,6.453414440155029,3
0.3260896105481625,6.4561989307403564,3
0.3390306433890855,6.458934545516968,3
0.3317055304602612,6.461710214614868,3
0.3143694298620436,6.46449089050293,3
0.3263337809791233,6.467231750488281,3
0.3194970089122206,6.470019102096558,3
0.3253570992552801,6.472801685333252,3
0.3368331095104382,6.475544214248657,3
0.3407398364058112,6.478276491165161,3
0.3339030643389085,6.481188058853149,3
0.324136247100476,6.483925819396973,3
0.3129044072762788,6.4866623878479,3
0.3016725674520815,6.489438056945801,3
0.2989866927115125,6.4922168254852295,3
0.3055792943474544,6.494947195053101,3
0.2931266023684531,6.4977192878723145,3
0.2977658405567085,6.500485420227051,3
0.2914174093517274,6.503255128860474,3
0.2904407276278842,6.505995035171509,3
0.2967891588328653,6.508768081665039,3
0.3019167378830423,6.511580228805542,3
0.2960566475399828,6.514322280883789,3
0.2911732389207666,6.517051696777344,3
0.2811622512513734,6.519856929779053,3
0.2743254791844707,6.52258825302124,3
0.2789647173727261,6.525323390960693,3
0.276523013063118,6.528103351593018,3
0.2662678549627639,6.53089714050293,3
0.2735929678915882,6.533628225326538,3
0.2672445366866072,6.536696672439575,3
0.2691979001342937,6.539451837539673,3
0.2860456598705896,6.542226552963257,3
0.2887315346111585,6.545004606246948,3
0.2862898303015504,6.547739028930664,3
0.3053351239164936,6.550505876541138,3
0.3006958857282382,6.553293466567993,3
0.2948357953851788,6.556028842926025,3
0.2941032840922963,6.558767318725586,3
0.2853131485777072,6.561574459075928,3
0.2801855695275301,6.564307928085327,3
0.2767671834940788,6.567057847976685,3
0.2679770479794896,6.56984281539917,3
0.2608961054816261,6.572575569152832,3
0.2833597851300207,6.575349807739258,3
0.2789647173727261,6.578091144561768,3
0.272616286167745,6.580855846405029,3
0.2909290684898058,6.583634853363037,3
0.282871444268099,6.586377382278442,3
0.2679770479794896,6.589113712310791,3
0.2770113539250396,6.591920614242554,3
0.2814064216823342,6.594658374786377,3
0.2735929678915882,6.597392320632935,3
0.2735929678915882,6.600202560424805,3
0.2660236845318031,6.602940320968628,3
0.2616286167745085,6.605677604675293,3
0.276523013063118,6.6084513664245605,3
0.271395434012941,6.611225128173828,3
0.2616286167745085,6.613957166671753,3
0.268709559272372,6.616730690002441,3
0.2731046270296666,6.619464874267578,3
0.2679770479794896,6.622235536575317,3
0.2750579904773531,6.625015258789063,3
0.2743254791844707,6.627749681472778,3
0.2633378097912342,6.630718946456909,3
0.2579660603100964,6.633490800857544,3
0.2633378097912342,6.636221170425415,3
0.267488707117568,6.638957977294922,3
0.2574777194481747,6.641756772994995,3
0.2547918447076058,6.644489288330078,3
0.2423391527286045,6.64725923538208,3
0.2594310828958612,6.650049209594727,3
0.2643144915150774,6.652790307998657,3
0.2586985716029788,6.655570030212402,3
0.2811622512513734,6.658307552337647,3
0.2823831034061774,6.661065578460693,3
0.2740813087535099,6.663836240768433,3
0.2892198754730801,6.66656231880188,3
0.3011842265901598,6.669293165206909,3
0.3036259308997679,6.672101974487305,3
0.3202295202051031,6.674842357635498,3
0.3143694298620436,6.67757773399353,3
0.3038701013307288,6.680409908294678,3
0.304846783054572,6.683146238327026,3
0.3016725674520815,6.685879230499268,3
0.3016725674520815,6.688653469085693,3
0.3202295202051031,6.691422462463379,3
0.3202295202051031,6.694159984588623,3
0.3187644976193382,6.696935653686523,3
0.3246245879623977,6.699674129486084,3
0.3275546331339274,6.702440977096558,3
0.3341472347698693,6.705209732055664,3
0.3592967891588328,6.707945585250855,3
0.359052618727872,6.71071720123291,3
0.3524600170919301,6.713500022888184,3
0.3475766084727139,6.716240167617798,3
0.350018312782322,6.718977689743042,3
0.3465999267488706,6.721794843673706,3
0.3497741423513612,6.724530458450317,3
0.3458674154559882,6.727384328842163,3
0.3485532901965571,6.73016095161438,3
0.3429373702844585,6.73289680480957,3
0.3382981320962031,6.735679388046265,3
0.3358564277865949,6.738420248031616,3
0.3485532901965571,6.741207599639893,3
0.3465999267488706,6.743981122970581,3
0.3363447686485166,6.746715307235718,3
0.3343914052008301,6.749451398849487,3
0.3434257111463801,6.752266645431519,3
0.3351239164937125,6.755023241043091,3
0.3544133805396166,6.757765769958496,3
0.3712611402759125,6.76058554649353,3
0.3556342326944206,6.763322353363037,3
0.3556342326944206,6.766052007675171,3
0.3710169698449517,6.768834829330444,3
0.3695519472591868,6.771633148193359,3
0.392503967769503,6.774371862411499,3
0.3937248199243071,6.777147054672241,3
0.410572579660603,6.779908895492554,3
0.4191185447442314,6.782641649246216,3
0.4176535221584665,6.78542160987854,3
0.4188743743132705,6.788158655166626,3
0.4261994872420949,6.790937185287476,3
0.4218044194848003,6.793719530105591,3
0.4083750457819557,6.796449899673462,3
0.4003174215602489,6.7992260456085205,3
0.4086192162129165,6.801997184753418,3
0.3956781833719935,6.804734706878662,3
0.3961665242339152,6.807509899139404,3
0.3927481382004638,6.810276985168457,3
0.3817604688072273,6.8130199909210205,3
0.3690636063972652,6.815808534622192,3
0.3719936515687949,6.818547964096069,3
0.3624710047613233,6.821317434310913,3
0.3624710047613233,6.82409405708313,3
0.3668660725186179,6.826834678649902,3
0.3575875961421071,6.829571008682251,3
0.3468440971798314,6.8323750495910645,3
0.3539250396776949,6.835107088088989,3
0.3419606885606152,6.837840795516968,3
0.3478207789036747,6.840646505355835,3
0.3536808692467341,6.84339165687561,3
0.3465999267488706,6.8461220264434814,3
0.3351239164937125,6.848892211914063,3
0.3361005982175558,6.851656198501587,3
0.3368331095104382,6.854399919509888,3
0.3234037358075936,6.8571860790252686,3
0.3165669637406909,6.859989166259766,3
0.3194970089122206,6.862722158432007,3
0.3182761567574166,6.865498304367065,3
0.3321938713221828,6.868237495422363,3
0.3290196557196922,6.8700339794158936,3
0.3290196557196922,6.871423006057739,3
0.3277988035648882,6.872790575027466,3
0.3343914052008301,6.874164581298828,3
0.3321938713221828,6.875531435012817,3
0.331949700891222,6.876900672912598,3
0.3334147234769868,6.878269195556641,3
0.3263337809791233,6.879658937454224,3
0.3202295202051031,6.881045341491699,3
0.324136247100476,6.882418155670166,3
0.3263337809791233,6.883788585662842,3
0.3212062019289463,6.885156869888306,3
0.3187644976193382,6.886523962020874,3
0.3221828836527896,6.8879148960113525,3
0.3207178610670247,6.889282703399658,3
0.3260896105481625,6.890683650970459,3
0.3221828836527896,6.892054080963135,3
0.3234037358075936,6.893422603607178,3
0.3287754852887314,6.894788026809692,3
0.3238920766695152,6.896177768707275,3
0.3153461115858869,6.89754581451416,3
0.3231595653766328,6.898914813995361,3
0.3263337809791233,6.900299787521362,3
0.3265779514100841,6.901669263839722,3
0.3185203271883774,6.903034925460815,3
0.3221828836527896,6.904422998428345,3
0.3204736906360639,6.905789852142334,3
0.3251129288243193,6.907159805297852,3
0.3243804175314368,6.908529043197632,3
0.3202295202051031,6.90991473197937,3
0.3221828836527896,6.911302804946899,3
0.3146136002930044,6.912669658660889,3
0.3072884873641801,6.914038419723511,3
0.3077768282261017,6.915406465530396,3
0.3116835551214747,6.916773080825806,3
0.3068001465022585,6.918140649795532,3
0.3028934196068855,6.919528961181641,3
0.3038701013307288,6.920914649963379,3
0.3065559760712977,6.9222822189331055,3
0.3185203271883774,6.923651695251465,3
0.3251129288243193,6.92501974105835,3
0.3214503723599071,6.926384210586548,3
0.3207178610670247,6.927772760391235,3
0.3143694298620436,6.929142951965332,3
0.3085093395189842,6.93053150177002,3
0.308753509949945,6.931900024414063,3
0.3143694298620436,6.933267116546631,3
0.3097301916737882,6.934633493423462,3
0.3085093395189842,6.93603777885437,3
0.3024050787449639,6.937406539916992,3
0.3006958857282382,6.938773155212402,3
0.3116835551214747,6.940155982971191,3
0.3231595653766328,6.941527605056763,3
0.3207178610670247,6.942895650863648,3
0.3273104627029666,6.944286584854126,3
0.3265779514100841,6.945652008056641,3
0.3192528384812598,6.947020530700684,3
0.3163227933097301,6.948390960693359,3
0.3234037358075936,6.9497716426849365,3
0.3231595653766328,6.951152563095093,3
0.3194970089122206,6.952529430389404,3
0.3187644976193382,6.953899621963501,3
0.3221828836527896,6.95527458190918,3
0.3265779514100841,6.956645727157593,3
0.3324380417531436,6.958013534545898,3
0.3258454401172017,6.95940637588501,3
0.3256012696862409,6.960791826248169,3
0.3202295202051031,6.962161779403687,3
0.3136369185691612,6.963526248931885,3
0.3094860212428274,6.964893579483032,3
0.3126602368453179,6.966258764266968,3
0.3077768282261017,6.967648029327393,3
0.304846783054572,6.969016075134277,3
0.2977658405567085,6.970583438873291,3
0.2875106824563544,6.973318338394165,3
0.2894640459040409,6.976091146469116,3
0.2875106824563544,6.97882866859436,3
0.2718837748748626,6.981599569320679,3
0.2784763765108045,6.984375715255737,3
0.2694420705652545,6.987115144729614,3
0.2704187522890977,6.989893436431885,3
0.2872665120253936,6.992671012878418,3
0.2811622512513734,6.995412349700928,3
0.2667561958246855,6.998140811920166,3
0.2755463313392747,7.000946998596191,3
0.2679770479794896,7.003679275512695,3
0.2699304114271761,7.006411552429199,3
0.2772555243560004,7.009189605712891,3
0.2733487974606274,7.011977195739746,3
0.2613844463435477,7.014712572097778,3
0.2652911732389207,7.017482042312622,3
0.2562568672933707,7.0202507972717285,3
0.2608961054816261,7.0229785442352295,3
0.2706629227200585,7.025753498077393,3
0.2762788426321572,7.028488636016846,3
0.267488707117568,7.031292200088501,3
0.271395434012941,7.034030437469482,3
0.2626052984983518,7.037060022354126,3
0.2618727872054693,7.039872407913208,3
0.2655353436698815,7.042613744735718,3
0.267488707117568,7.045350551605225,3
0.2538151629837626,7.048124074935913,3
0.2655353436698815,7.050895690917969,3
0.2586985716029788,7.053630590438843,3
0.2652911732389207,7.056419849395752,3
0.2745696496154315,7.059157609939575,3
0.2755463313392747,7.0619285106658936,3
0.2633378097912342,7.064708948135376,3
0.2711512635819801,7.067451000213623,3
0.2626052984983518,7.070218563079834,3
0.267488707117568,7.072995662689209,3
0.2843364668538639,7.075732469558716,3
0.2821389329752166,7.078465938568115,3
0.2696862409962153,7.081273317337036,3
0.276523013063118,7.084010362625122,3
0.268709559272372,7.086740970611572,3
0.2677328775485288,7.0895094871521,3
0.276523013063118,7.092280387878418,3
0.2723721157367842,7.095015525817871,3
0.2601635941887437,7.097790479660034,3
0.2613844463435477,7.100557327270508,3
0.2550360151385666,7.103334903717041,3
0.2420949822976437,7.106077432632446,3
0.2469783909168599,7.108847618103027,3
0.2423391527286045,7.112960338592529,3
0.2372115736784275,7.115709543228149,3
0.2481992430716639,7.118448734283447,3
0.2460017091930166,7.1213133335113525,3
0.2518617995360761,7.124406099319458,3
0.2530826516908802,7.127182722091675,3
0.2518617995360761,7.129987001419067,3
0.2450250274691734,7.133002519607544,3
0.2445366866072518,7.135788917541504,3
0.2401416188499572,7.138535737991333,3
0.2413624710047612,7.141299486160278,3
0.2406299597118788,7.1443352699279785,3
0.2362348919545842,7.1470818519592285,3
0.2359907215236234,7.149844408035278,3
0.2355023806617018,7.152625799179077,3
0.2335490172140153,7.155644655227661,3
0.2428274935905261,7.158391952514648,3
0.2408741301428396,7.161214351654053,3
0.2374557441093883,7.164221525192261,3
0.2438041753143693,7.166969060897827,3
0.2423391527286045,7.169747114181519,3
0.2423391527286045,7.1726062297821045,3
0.2569893785862531,7.175657510757446,3
0.2523501403979977,7.178400278091431,3
0.2452691979001342,7.181175470352173,3
0.263581980222195,7.183967351913452,3
0.262361128067391,7.186976909637451,3
0.2599194237577829,7.189718723297119,3
0.2704187522890977,7.192558765411377,3
0.2721279453058234,7.195647478103638,3
0.2569893785862531,7.198390245437622,3
0.2691979001342937,7.20120096206665,3
0.2608961054816261,7.203938722610474,3
0.2562568672933707,7.206955432891846,3
0.268709559272372,7.209735870361328,3
0.2660236845318031,7.21250319480896,3
0.2569893785862531,7.215276002883911,3
0.2677328775485288,7.2182934284210205,3
0.2589427420339396,7.22106122970581,3
0.2652911732389207,7.223838806152344,3
0.2782322060798436,7.22684383392334,3
0.2757905017702355,7.229591608047485,3
0.2648028323769991,7.232399225234985,3
0.2755463313392747,7.235137701034546,3
0.2684653888414112,7.23815131187439,3
0.2740813087535099,7.240976095199585,3
0.2784763765108045,7.243714332580566,3
0.2755463313392747,7.246451616287231,3
0.2655353436698815,7.2494847774505615,3
0.2657795141008423,7.252285242080688,3
0.2626052984983518,7.255024909973144,3
0.2784763765108045,7.258081436157227,3
0.2836039555609815,7.260876178741455,3
0.2811622512513734,7.263663291931152,3
0.277743865217922,7.266398191452026,3
0.2804297399584909,7.269407510757446,3
0.272616286167745,7.27230167388916,3
0.2862898303015504,7.275042533874512,3
0.2862898303015504,7.277779340744018,3
0.2870223415944328,7.280867576599121,3
0.2921499206446099,7.283612251281738,3
0.2889757050421193,7.286358594894409,3
0.2870223415944328,7.289398908615112,3
0.3077768282261017,7.292185068130493,3
0.3075326577951409,7.294934272766113,3
0.2982541814186301,7.2977135181427,3
0.3014283970211207,7.300755500793457,3
0.295812477109022,7.303539991378784,3
0.2948357953851788,7.306281566619873,3
0.3063118056403369,7.3090126514434814,3
0.3031375900378463,7.312091827392578,3
0.2899523867659626,7.3148322105407715,3
0.2960566475399828,7.3175647258758545,3
0.2872665120253936,7.320640802383423,3
0.2862898303015504,7.323382616043091,3
0.3006958857282382,7.326122760772705,3
0.2987425222805517,7.328906059265137,3
0.2843364668538639,7.331951856613159,3
0.2848248077157855,7.334693431854248,3
0.2770113539250396,7.3374717235565186,3
0.2743254791844707,7.340240716934204,3
0.2823831034061774,7.343282699584961,3
0.2814064216823342,7.346011638641357,3
0.2665120253937247,7.348744630813599,3
0.2743254791844707,7.351688861846924,3
0.2665120253937247,7.35456395149231,3
0.2723721157367842,7.357306003570557,3
0.276523013063118,7.360132932662964,3
0.2716396044439018,7.363149404525757,3
0.259675253326822,7.365888595581055,3
0.2704187522890977,7.368669271469116,3
0.2645586619460383,7.371471643447876,3
0.2704187522890977,7.374478816986084,3
0.2731046270296666,7.377256870269775,3
0.267488707117568,7.38002872467041,3
0.258454401172018,7.382762670516968,3
0.2608961054816261,7.385778903961182,3
0.2569893785862531,7.388514041900635,3
0.2633378097912342,7.391324996948242,3
0.263581980222195,7.394336700439453,3
0.2601635941887437,7.397076845169067,3
0.2547918447076058,7.3998863697052,3
0.2540593334147234,7.402617454528809,3
0.2508851178122329,7.4056291580200195,3
0.2618727872054693,7.408398866653442,3
0.2601635941887437,7.411169290542602,3
0.2521059699670369,7.413894891738892,3
0.2489317543645464,7.416947841644287,3
0.2499084360883896,7.419688940048218,3
0.2430716640214869,7.4224534034729,3
0.2543035038456842,7.42549467086792,3
0.2538151629837626,7.428231477737427,3
0.245513368331095,7.431005239486694,3
0.2481992430716639,7.433779954910278,3
0.2433158344524477,7.436793565750122,3
0.2425833231595653,7.439575910568237,3
0.2557685264314491,7.442346811294556,3
0.2543035038456842,7.4450836181640625,3
0.2413624710047612,7.448156833648682,3
0.2489317543645464,7.450939416885376,3
0.2413624710047612,7.453680753707886,3
0.2418508118666829,7.456740617752075,3
0.2547918447076058,7.459496974945068,3
0.2538151629837626,7.462277412414551,3
0.2411183005738004,7.4650609493255615,3
0.2499084360883896,7.468090295791626,3
0.2418508118666829,7.470904588699341,3
0.2469783909168599,7.473690509796143,3
0.2555243560004883,7.476426124572754,3
0.2528384812599193,7.479487419128418,3
0.2394091075570747,7.482262134552002,3
0.2452691979001342,7.485010147094727,3
0.2401416188499572,7.488047122955322,3
0.2481992430716639,7.490851879119873,3
0.2530826516908802,7.493587732315063,3
0.2530826516908802,7.496364593505859,0
0.2413624710047612,7.499378681182861,0
0.2467342204858991,7.502154111862183,0
0.2420949822976437,7.504934549331665,0
0.2479550726407031,7.507671117782593,0
0.2518617995360761,7.510715961456299,0
0.2486875839335856,7.513499975204468,0
0.2406299597118788,7.516244411468506,0
0.2460017091930166,7.519296407699585,0
0.2428274935905261,7.522066831588745,0
0.2511292882431937,7.524801015853882,0
0.2523501403979977,7.527576923370361,0
0.2481992430716639,7.530630111694336,0
0.2452691979001342,7.533371925354004,0
0.2452691979001342,7.536149978637695,0
0.2438041753143693,7.539191007614136,0
0.2572335490172139,7.542250156402588,0
0.2547918447076058,7.545028686523437,0
0.2457575387620558,7.547768831253052,0
0.2484434135026247,7.5508129596710205,0
0.2433158344524477,7.553594350814819,0
0.2440483457453302,7.55633807182312,0
0.2569893785862531,7.559096336364746,0
0.2567452081552923,7.562165975570679,0
0.2445366866072518,7.564908266067505,0
0.2523501403979977,7.567684888839722,0
0.2452691979001342,7.570457458496094,0
0.2499084360883896,7.57348108291626,0
0.2645586619460383,7.576262950897217,0
0.2618727872054693,7.578996419906616,0
0.2491759247955072,7.582043170928955,0
0.2579660603100964,7.584822416305542,0
0.2503967769503112,7.587555646896362,0
0.2557685264314491,7.590336561203003,0
0.267488707117568,7.593386650085449,0
0.2660236845318031,7.5961222648620605,0
0.2523501403979977,7.598863124847412,0
0.2621169576364301,7.601670265197754,0
0.2557685264314491,7.604681015014648,0
0.2577218898791356,7.6074607372283936,0
0.2650470028079599,7.610259532928467,0
0.2628494689293126,7.613265514373779,0
0.2503967769503112,7.616048097610474,0
0.2562568672933707,7.618782997131348,0
0.2516176291051153,7.621551990509033,0
0.2569893785862531,7.624594211578369,0
0.2608961054816261,7.62733006477356,0
0.2577218898791356,7.630104064941406,0
0.2486875839335856,7.632891893386841,0
0.2506409473812721,7.635909795761108,0
0.2452691979001342,7.638654470443726,0
0.2538151629837626,7.641458749771118,0
0.2557685264314491,7.644469499588013,0
0.2501526065193504,7.64724063873291,0
0.2479550726407031,7.650017499923706,0
0.2489317543645464,7.652755498886108,0
0.2460017091930166,7.655803918838501,0
0.2586985716029788,7.658541202545166,0
0.2574777194481747,7.661320209503174,0
0.2501526065193504,7.664092540740967,0
0.2508851178122329,7.667112588882446,0
0.2491759247955072,7.67008638381958,0
0.2447808570382126,7.672872543334961,0
0.2557685264314491,7.675883054733276,0
0.2530826516908802,7.678624153137207,0
0.2398974484189964,7.681443214416504,0
0.2457575387620558,7.684186935424805,0
0.2391649371261139,7.687237024307251,0
0.2374557441093883,7.690014362335205,0
0.2499084360883896,7.692751407623291,0
0.2501526065193504,7.6955225467681885,0
0.2362348919545842,7.698527812957764,0
0.2457575387620558,7.7013099193573,0
0.2379440849713099,7.704110622406006,0
0.2420949822976437,7.707123756408691,0
0.2538151629837626,7.709884166717529,0
0.2538151629837626,7.712659120559692,0
0.240385789280918,7.715401649475098,0
0.2489317543645464,7.718419790267944,0
0.2413624710047612,7.721236705780029,0
0.244292516176291,7.723970651626587,0
0.2530826516908802,7.726700782775879,0
0.2518617995360761,7.729742527008057,0
0.2394091075570747,7.732532739639282,0
0.2462458796239774,7.735308647155762,0
0.2391649371261139,7.738322734832764,0
0.2452691979001342,7.741114616394043,0
0.2523501403979977,7.743893384933472,0
0.2535709925528018,7.74663233757019,0
0.2391649371261139,7.7496514320373535,0
0.2452691979001342,7.752475023269653,0
0.2420949822976437,7.755218744277954,0
0.2499084360883896,7.757957458496094,0
0.2567452081552923,7.761868715286255,0
0.2474667317787815,7.764635562896728,0
0.2508851178122329,7.767418622970581,0
0.245513368331095,7.770195007324219,0
0.2450250274691734,7.772930860519409,0
0.2599194237577829,7.7757039070129395,0
0.2579660603100964,7.778433084487915,0
0.2491759247955072,7.781197547912598,0
0.2528384812599193,7.783972024917602,0
0.2474667317787815,7.786709070205688,0
0.2460017091930166,7.789441823959351,0
0.2582102307410572,7.792247295379639,0
0.2567452081552923,7.794983386993408,0
0.2484434135026247,7.797723770141602,0
0.2503967769503112,7.800531387329102,0
0.2481992430716639,7.803265810012817,0
0.2457575387620558,7.806004047393799,0
0.2582102307410572,7.808774471282959,0
0.2560126968624099,7.811533689498901,0
0.2479550726407031,7.81426191329956,0
0.2496642656574288,7.817043781280518,0
0.2491759247955072,7.819812774658203,0
0.2469783909168599,7.822552442550659,0
0.2569893785862531,7.825331211090088,0
0.2560126968624099,7.828069686889648,0
0.2506409473812721,7.830866098403931,0
0.2481992430716639,7.833647012710571,0
0.2464900500549383,7.836500883102417,0
0.2430716640214869,7.8392815589904785,0
0.2540593334147234,7.842044830322266,0
0.2528384812599193,7.844775438308716,0
0.2462458796239774,7.847555637359619,0
0.2462458796239774,7.850354671478271,0
0.2460017091930166,7.853105783462524,0
0.2440483457453302,7.855883598327637,0
0.2562568672933707,7.858621120452881,0
0.2552801855695275,7.8613972663879395,0
0.2491759247955072,7.864181518554687,0
0.2481992430716639,7.866919755935669,0
0.2477109022097423,7.869655132293701,0
0.2469783909168599,7.872462511062622,0
0.2577218898791356,7.875200510025024,0
0.2569893785862531,7.877934455871582,0
0.2518617995360761,7.880738735198975,0
0.2491759247955072,7.883476734161377,0
0.2491759247955072,7.886215686798096,0
0.2457575387620558,7.889003753662109,0
0.2569893785862531,7.891770601272583,0
0.2589427420339396,7.89450216293335,0
0.2550360151385666,7.897278547286987,0
0.2511292882431937,7.900042295455933,0
0.2525943108289585,7.902774572372436,0
0.2518617995360761,7.905545473098755,0
0.2613844463435477,7.908282279968262,0
0.2626052984983518,7.911068916320801,0
0.2569893785862531,7.913830280303955,0
0.2511292882431937,7.91655969619751,0
0.2582102307410572,7.919330835342407,0
0.2499084360883896,7.92210578918457,0
0.2579660603100964,7.924838542938232,0
0.2601635941887437,7.927611827850342,0
0.2562568672933707,7.930384635925293,0
0.2491759247955072,7.933127403259277,0
0.2535709925528018,7.935902118682861,0
0.2491759247955072,7.938638210296631,0
0.2560126968624099,7.941398859024048,0
0.2589427420339396,7.94417929649353,0
0.2543035038456842,7.946915626525879,0
0.2450250274691734,7.949656963348389,0
0.2491759247955072,7.952459096908569,0
0.2467342204858991,7.95520281791687,0
0.2521059699670369,7.95793342590332,0
0.2586985716029788,7.96076226234436,0
0.2547918447076058,7.963504314422607,0
0.2445366866072518,7.966241121292114,0
0.2511292882431937,7.969014644622803,0
0.2457575387620558,7.971814393997192,0
0.2511292882431937,7.974544763565063,0
0.2562568672933707,7.977322101593018,0
0.2528384812599193,7.980090856552124,0
0.2418508118666829,7.982824802398682,0
0.2469783909168599,7.985600471496582,0
0.2433158344524477,7.988332509994507,0
0.2481992430716639,7.991142511367798,0
0.2530826516908802,7.993893623352051,0
0.2530826516908802,7.996628999710083,0
0.2413624710047612,7.99940824508667,0
0.2481992430716639,8.002175331115723,0
0.2425833231595653,8.00491189956665,0
0.2457575387620558,8.007694005966187,0
0.2540593334147234,8.01046872138977,0
0.2518617995360761,8.013203620910645,0
0.2384324258332315,8.01598072052002,0
0.2462458796239774,8.018714189529419,0
0.2398974484189964,8.021482467651367,0
0.2450250274691734,8.024264097213745,0
0.2530826516908802,8.026999473571777,0
0.2511292882431937,8.029724597930908,0
0.2369674032474666,8.032520294189453,0
0.2481992430716639,8.035273313522339,0
0.241606641435722,8.038309097290039,0
0.2457575387620558,8.041130065917969,0
0.2530826516908802,8.043859720230103,0
0.2484434135026247,8.046603202819824,0
0.2357465510926626,8.049372911453247,0
0.2450250274691734,8.052146911621094,0
0.2394091075570747,8.054884910583496,0
0.2438041753143693,8.057658195495605,0
0.2521059699670369,8.060418367385864,0
0.2496642656574288,8.063199996948242,0
0.2362348919545842,8.065942525863647,0
0.2445366866072518,8.068681955337524,0
0.2374557441093883,8.071494102478027,0
0.2374557441093883,8.074234008789062,0
0.2462458796239774,8.076965570449829,0
0.2452691979001342,8.0797438621521,0
0.2311073129044072,8.08250880241394,0
0.2406299597118788,8.085252285003662,0
0.2335490172140153,8.088030815124512,0
0.2379440849713099,8.0908203125,0
0.2491759247955072,8.093562126159668,0
0.2486875839335856,8.096346855163574,0
0.2345256989378585,8.099074363708496,0
0.2452691979001342,8.101847410202026,0
0.2381882554022707,8.104626655578613,0
0.2418508118666829,8.107366561889648,0
0.2530826516908802,8.110126256942749,0
0.2511292882431937,8.112900495529175,0
0.2369674032474666,8.115632772445679,0
0.2464900500549383,8.11836576461792,0
0.2381882554022707,8.12122893333435,0
0.2406299597118788,8.124483823776245,0
0.2516176291051153,8.127265214920044,0
0.2484434135026247,8.130043506622314,0
0.236479062385545,8.132771492004395,0
0.2460017091930166,8.13555908203125,0
0.2411183005738004,8.138305187225342,0
0.2462458796239774,8.141072273254395,0
0.2569893785862531,8.143840551376343,0
0.2579660603100964,8.146574020385742,0
0.244292516176291,8.149304151535034,0
0.2543035038456842,8.15211033821106,0
0.2479550726407031,8.15485429763794,0
0.2508851178122329,8.15759015083313,0
0.259675253326822,8.160403728485107,0
0.2582102307410572,8.163150787353516,0
0.2445366866072518,8.165894031524658,0
0.2538151629837626,8.168670654296875,0
0.2481992430716639,8.171450138092041,0
0.2503967769503112,8.174185276031494,0
0.2589427420339396,8.176960945129395,0
0.2582102307410572,8.179688215255737,0
0.2445366866072518,8.18257737159729,0
0.2518617995360761,8.185357809066772,0
0.2457575387620558,8.188099384307861,0
0.2508851178122329,8.190864562988281,0
0.2626052984983518,8.193636178970337,0
0.2626052984983518,8.196376323699951,0
0.2481992430716639,8.199131965637207,0
0.2589427420339396,8.20191502571106,0
0.2511292882431937,8.204647779464722,0
0.2538151629837626,8.20741868019104,0
0.2655353436698815,8.210212707519531,0
0.2616286167745085,8.212948322296143,0
0.2462458796239774,8.215747833251953,0
0.2579660603100964,8.218477964401245,0
0.2499084360883896,8.221247673034668,0
0.2518617995360761,8.224023342132568,0
0.263581980222195,8.226768970489502,0
0.2626052984983518,8.229501962661743,0
0.2481992430716639,8.232313632965088,0
0.2577218898791356,8.235054731369019,0
0.2496642656574288,8.237793922424316,0
0.2521059699670369,8.240621328353882,0
0.2657795141008423,8.243355989456177,0
0.2657795141008423,8.246088027954102,0
0.2535709925528018,8.248866319656372,0
0.2577218898791356,8.251630306243896,0
0.2496642656574288,8.254371643066406,0
0.2503967769503112,8.257147789001465,0
0.2618727872054693,8.259915351867676,0
0.2599194237577829,8.262661457061768,0
0.2457575387620558,8.26544451713562,0
0.2538151629837626,8.268181562423706,0
0.2462458796239774,8.270952939987183,0
0.2484434135026247,8.273728132247925,0
0.2618727872054693,8.27645993232727,0
0.2608961054816261,8.27922797203064,0
0.2474667317787815,8.28200364112854,0
0.2550360151385666,8.284741640090942,0
0.2469783909168599,8.287525415420532,0
0.2460017091930166,8.290296792984009,0
0.258454401172018,8.293025970458984,0
0.2567452081552923,8.295804977416992,0
0.2438041753143693,8.298542976379395,0
0.2508851178122329,8.301310777664185,0
0.2440483457453302,8.304094791412354,0
0.244292516176291,8.306830406188965,0
0.2557685264314491,8.309565544128418,0
0.2543035038456842,8.312459230422974,0
0.2423391527286045,8.315194845199585,0
0.2464900500549383,8.317930936813354,0
0.2391649371261139,8.320739507675171,0
0.2408741301428396,8.323477268218994,0
0.2518617995360761,8.326207160949707,0
0.2513734586741545,8.328989028930664,0
0.2406299597118788,8.331788301467896,0
0.2469783909168599,8.334529876708984,0
0.2420949822976437,8.33731460571289,0
0.2423391527286045,8.34009051322937,0
0.2538151629837626,8.342830657958984,0
0.2523501403979977,8.345603227615356,0
0.2420949822976437,8.348340511322021,0
0.2462458796239774,8.351134061813354,0
0.2411183005738004,8.353896856307983,0
0.2430716640214869,8.356635570526123,0
0.2540593334147234,8.359403610229492,0
0.2530826516908802,8.362171411514282,0
0.2438041753143693,8.36491584777832,0
0.2472225613478207,8.367703676223755,0
0.2447808570382126,8.370479106903076,0
0.244292516176291,8.373218059539795,0
0.2560126968624099,8.375993967056274,0
0.2547918447076058,8.378730297088623,0
0.245513368331095,8.38149881362915,0
0.2484434135026247,8.384280681610107,0
0.2452691979001342,8.387013673782349,0
0.2433158344524477,8.389775037765503,0
0.2557685264314491,8.392560720443726,0
0.2530826516908802,8.395293235778809,0
0.2438041753143693,8.398031234741211,0
0.2462458796239774,8.400843858718872,0
0.2450250274691734,8.4035804271698,0
0.2423391527286045,8.406311988830566,0
0.2543035038456842,8.409093856811523,0
0.2516176291051153,8.411865472793579,0
0.2452691979001342,8.41459345817566,0
0.2462458796239774,8.417369842529297,0
0.244292516176291,8.42013931274414,0
0.2423391527286045,8.422872304916382,0
