semg,time,class
0.2215846660969356,0.0032548904418945,0
0.2276889268709558,0.0059635639190673,0
0.2237821999755829,0.0086963176727294,0
0.2284214381638383,0.011371374130249,0
0.2318398241972896,0.0143983364105224,0
0.2301306311805639,0.017120361328125,0
0.2218288365278964,0.0197925567626953,0
0.2267122451471126,0.022456407546997,0
0.2232938591136612,0.0252096652984619,0
0.2250030521303869,0.0278761386871337,0
0.231351483335368,0.0305492877960205,0
0.2306189720424856,0.0333232879638671,0
0.2169454279086802,0.0359935760498046,0
0.2272005860090342,0.038661241531372,0
0.2218288365278964,0.0413880348205566,0
0.2247588816994261,0.0441255569458007,0
0.2335490172140153,0.0468034744262695,0
0.236479062385545,0.0495131015777587,0
0.2230496886827004,0.0521807670593261,0
0.2320839946282504,0.0549783706665039,0
0.2254913929923085,0.0576894283294677,0
0.2269564155780734,0.060352087020874,0
0.2381882554022707,0.0630674362182617,0
0.2379440849713099,0.0657763481140136,0
0.2250030521303869,0.0684511661529541,0
0.231351483335368,0.0711255073547363,0
0.2254913929923085,0.073880910873413,0
0.2254913929923085,0.0765588283538818,0
0.2355023806617018,0.079233169555664,0
0.235258210230741,0.0819430351257324,0
0.227444756439995,0.084651231765747,0
0.2284214381638383,0.0873186588287353,0
0.2276889268709558,0.0900297164916992,0
0.226223904285191,0.0926976203918457,0
0.2355023806617018,0.0954132080078125,0
0.2359907215236234,0.098102331161499,0
0.2323281650592112,0.1007907390594482,0
0.227444756439995,0.1035401821136474,0
0.2325723354901721,0.106210708618164,0
0.2269564155780734,0.1088817119598388,0
0.2325723354901721,0.1116142272949218,0
0.2355023806617018,0.1143169403076171,0
0.2340373580759369,0.1169965267181396,0
0.2230496886827004,0.1197009086608886,0
0.231351483335368,0.1223790645599365,0
0.2267122451471126,0.1250786781311035,0
0.231351483335368,0.127793550491333,0
0.2384324258332315,0.1304683685302734,0
0.2391649371261139,0.1331727504730224,0
0.226223904285191,0.1358785629272461,0
0.2350140397997802,0.1385486125946045,0
0.2284214381638383,0.1412322521209716,0
0.2301306311805639,0.1440086364746093,0
0.2418508118666829,0.146683931350708,0
0.2423391527286045,0.1493885517120361,0
0.2296422903186423,0.1521022319793701,0
0.2367232328165058,0.1548314094543457,0
0.2306189720424856,0.1575076580047607,0
0.2306189720424856,0.160219669342041,0
0.2423391527286045,0.1629269123077392,0
0.2430716640214869,0.1656022071838379,0
0.231351483335368,0.1683149337768554,0
0.235258210230741,0.1709902286529541,0
0.2315956537663288,0.1736965179443359,0
0.2318398241972896,0.1764130592346191,0
0.2418508118666829,0.1790883541107177,0
0.240385789280918,0.1817595958709716,0
0.2340373580759369,0.1845624446868896,0
0.2328165059211329,0.1872389316558838,0
0.2335490172140153,0.1899106502532959,0
0.231351483335368,0.1926298141479492,0
0.2401416188499572,0.1953344345092773,0
0.2406299597118788,0.1979999542236328,0
0.2367232328165058,0.2007262706756591,0
0.2301306311805639,0.2034430503845214,0
0.2347698693688193,0.2061076164245605,0
0.2306189720424856,0.2088251113891601,0
0.2367232328165058,0.2114942073822021,0
0.2391649371261139,0.214210033416748,0
0.2389207666951531,0.2169232368469238,0
0.2276889268709558,0.2195968627929687,0
0.2355023806617018,0.2222623825073242,0
0.2306189720424856,0.2250065803527832,0
0.2335490172140153,0.2276771068572998,0
0.2413624710047612,0.2303516864776611,0
0.240385789280918,0.233086347579956,0
0.227444756439995,0.235755443572998,0
0.2362348919545842,0.2384266853332519,0
0.2291539494567207,0.2411420345306396,0
0.2306189720424856,0.2438502311706543,0
0.2413624710047612,0.2465224266052246,0
0.2413624710047612,0.2492299079895019,0
0.2289097790257599,0.2518966197967529,0
0.2345256989378585,0.2545928955078125,0
0.2286656085947991,0.2573020458221435,0
0.2276889268709558,0.2599656581878662,0
0.2372115736784275,0.2626383304595947,0
0.2372115736784275,0.2653787136077881,0
0.2289097790257599,0.2680449485778808,0
0.2296422903186423,0.2707085609436035,0
0.2289097790257599,0.2734744548797607,0
0.226223904285191,0.2761437892913818,0
0.2362348919545842,0.2788112163543701,0
0.2367232328165058,0.2815189361572265,0
0.2323281650592112,0.2842271327972412,0
0.2276889268709558,0.2868940830230713,0
0.2306189720424856,0.2896316051483154,0
0.2281772677328775,0.2923049926757812,0
0.240385789280918,0.296372652053833,0
0.2406299597118788,0.299058198928833,0
0.2296422903186423,0.3017435073852539,0
0.2333048467830545,0.3045082092285156,0
0.2289097790257599,0.3074688911437988,0
0.2286656085947991,0.3101394176483154,0
0.2389207666951531,0.3128879070281982,0
0.2396532779880356,0.3158292770385742,0
0.2289097790257599,0.3185148239135742,0
0.2345256989378585,0.3212301731109619,0
0.2306189720424856,0.3239398002624511,0
0.2318398241972896,0.3268861770629883,0
0.2425833231595653,0.3296029567718506,0
0.2430716640214869,0.332282543182373,0
0.2328165059211329,0.3350017070770263,0
0.2362348919545842,0.3379828929901123,0
0.2315956537663288,0.3406572341918945,0
0.2320839946282504,0.3433818817138672,0
0.2430716640214869,0.3460922241210937,0
0.2440483457453302,0.3490505218505859,0
0.2335490172140153,0.3517634868621826,0
0.2374557441093883,0.3544774055480957,0
0.2345256989378585,0.3573424816131592,0
0.2335490172140153,0.360126256942749,0
0.2445366866072518,0.3628313541412353,0
0.2445366866072518,0.3655025959014892,0
0.2357465510926626,0.3685019016265869,0
0.2391649371261139,0.3711786270141601,0
0.2342815285068977,0.3738870620727539,0
0.2345256989378585,0.376589298248291,0
0.2440483457453302,0.3795452117919922,0
0.2445366866072518,0.3822200298309326,0
0.2359907215236234,0.3849709033966064,0
0.2374557441093883,0.3876373767852783,0
0.235258210230741,0.390589952468872,0
0.2335490172140153,0.3933587074279785,0
0.2438041753143693,0.3960373401641845,0
0.2430716640214869,0.3987152576446533,0
0.2333048467830545,0.4017086029052734,0
0.2362348919545842,0.404437780380249,0
0.2335490172140153,0.4071202278137207,0
0.2323281650592112,0.410118818283081,0
0.2428274935905261,0.4128501415252685,0
0.2425833231595653,0.4155645370483398,0
0.2345256989378585,0.4182357788085937,0
0.2359907215236234,0.4211823940277099,0
0.2342815285068977,0.4239468574523926,0
0.2345256989378585,0.4269678592681885,0
0.2452691979001342,0.4297347068786621,0
0.2457575387620558,0.432448148727417,0
0.2347698693688193,0.4351682662963867,0
0.2391649371261139,0.4381186962127685,0
0.2342815285068977,0.4408340454101562,0
0.2345256989378585,0.4435393810272217,0
0.244292516176291,0.4464941024780273,0
0.2460017091930166,0.4492127895355224,0
0.235258210230741,0.4518890380859375,0
0.2408741301428396,0.4548683166503906,0
0.235258210230741,0.4575824737548828,0
0.236479062385545,0.4602525234222412,0
0.2477109022097423,0.4631936550140381,0
0.2491759247955072,0.4659848213195801,0
0.2372115736784275,0.4686670303344726,0
0.2413624710047612,0.4713635444641113,0
0.2367232328165058,0.4743654727935791,0
0.2369674032474666,0.4770586490631103,0
0.2467342204858991,0.4797878265380859,0
0.2481992430716639,0.4824564456939697,0
0.2357465510926626,0.4854447841644287,0
0.2411183005738004,0.4881570339202881,0
0.2367232328165058,0.4908413887023926,0
0.2372115736784275,0.4938280582427978,0
0.2474667317787815,0.4965472221374511,0
0.2479550726407031,0.4992251396179199,0
0.2359907215236234,0.5019207000732422,0
0.240385789280918,0.5049653053283691,0
0.2342815285068977,0.5076544284820557,0
0.2345256989378585,0.5103204250335693,0
0.2440483457453302,0.5134236812591553,0
0.2462458796239774,0.5160994529724121,0
0.2342815285068977,0.5187807083129883,0
0.2394091075570747,0.5214877128601074,0
0.235258210230741,0.5244746208190918,0
0.2355023806617018,0.5271503925323486,0
0.2462458796239774,0.5298604965209961,0
0.2469783909168599,0.5325369834899902,0
0.2340373580759369,0.5355625152587891,0
0.240385789280918,0.5382380485534668,0
0.2345256989378585,0.5409083366394043,0
0.2359907215236234,0.5436534881591797,0
0.2457575387620558,0.5466048717498779,0
0.2469783909168599,0.5492801666259766,0
0.235258210230741,0.5519969463348389,0
0.2398974484189964,0.5549819469451904,0
0.2345256989378585,0.5576684474945068,0
0.2359907215236234,0.5603785514831543,0
0.2457575387620558,0.5630912780761719,0
0.2464900500549383,0.5660417079925537,0
0.235258210230741,0.5687577724456787,0
0.2396532779880356,0.5714406967163086,0
0.235258210230741,0.5741441249847412,0
0.2362348919545842,0.5771057605743408,0
0.2472225613478207,0.5797858238220215,0
0.2479550726407031,0.5824577808380127,0
0.2374557441093883,0.5852031707763672,0
0.2420949822976437,0.5881576538085938,0
0.2362348919545842,0.5908355712890625,0
0.2367232328165058,0.593580961227417,0
0.2481992430716639,0.5962615013122559,0
0.2491759247955072,0.5992069244384766,0
0.2379440849713099,0.6019430160522461,0
0.2413624710047612,0.6046767234802246,0
0.2372115736784275,0.6076836585998535,0
0.2381882554022707,0.6103639602661133,0
0.2479550726407031,0.6130800247192383,0
0.2479550726407031,0.6157898902893066,0
0.2384324258332315,0.6187379360198975,0
0.2413624710047612,0.6214151382446289,0
0.2379440849713099,0.624190092086792,0
0.2381882554022707,0.6268637180328369,0
0.2484434135026247,0.629817008972168,0
0.2489317543645464,0.6325323581695557,0
0.2381882554022707,0.6352682113647461,0
0.241606641435722,0.6379380226135254,0
0.2376999145403491,0.6409299373626709,0
0.2374557441093883,0.6436495780944824,0
0.2481992430716639,0.6463255882263184,0
0.2479550726407031,0.6493122577667236,0
0.2372115736784275,0.6519899368286133,0
0.2411183005738004,0.6547000408172607,0
0.2384324258332315,0.6574130058288574,0
0.2374557441093883,0.6603579521179199,0
0.2484434135026247,0.6630904674530029,0
0.2489317543645464,0.6658148765563965,0
0.2389207666951531,0.6684868335723877,0
0.2418508118666829,0.6714653968811035,0
0.2374557441093883,0.6741771697998047,0
0.2362348919545842,0.6768536567687988,0
0.2464900500549383,0.6795673370361328,0
0.2469783909168599,0.6825118064880371,0
0.2374557441093883,0.6852283477783203,0
0.2401416188499572,0.6879386901855469,0
0.2381882554022707,0.6908917427062988,0
0.2355023806617018,0.6937265396118164,0
0.2452691979001342,0.6964445114135742,0
0.2452691979001342,0.6991128921508789,0
0.2357465510926626,0.702063798904419,0
0.2391649371261139,0.7048351764678955,0
0.2340373580759369,0.7075135707855225,0
0.2345256989378585,0.7101743221282959,0
0.2438041753143693,0.7132053375244141,0
0.2447808570382126,0.715883731842041,0
0.2347698693688193,0.7185544967651367,0
0.2374557441093883,0.7212722301483154,0
0.2350140397997802,0.7242615222930908,0
0.2345256989378585,0.7269363403320312,0
0.2457575387620558,0.7296586036682129,0
0.2450250274691734,0.73260498046875,0
0.2355023806617018,0.7353324890136719,0
0.2394091075570747,0.7380304336547852,0
0.2374557441093883,0.7407033443450928,0
0.2372115736784275,0.7437279224395752,0
0.2489317543645464,0.7464215755462646,0
0.2479550726407031,0.7490966320037842,0
0.2391649371261139,0.7518165111541748,0
0.2418508118666829,0.7548224925994873,0
0.2384324258332315,0.757495641708374,0
0.2376999145403491,0.7602105140686035,0
0.2474667317787815,0.7629125118255615,0
0.2479550726407031,0.7658588886260986,0
0.2379440849713099,0.7685811519622803,0
0.2398974484189964,0.7712583541870117,0
0.2367232328165058,0.7742412090301514,0
0.2355023806617018,0.7769637107849121,0
0.2460017091930166,0.7796425819396973,0
0.2445366866072518,0.7823140621185303,0
0.2362348919545842,0.7853381633758545,0
0.2391649371261139,0.7880146503448486,0
0.2355023806617018,0.7906832695007324,0
0.2328165059211329,0.7934315204620361,0
0.2433158344524477,0.7963812351226807,0
0.2440483457453302,0.7990572452545166,0
0.2342815285068977,0.8017854690551758,0
0.2357465510926626,0.8045079708099365,0
0.2337931876449761,0.8075122833251953,0
0.2342815285068977,0.8102035522460938,0
0.244292516176291,0.8129196166992188,0
0.2438041753143693,0.8158767223358154,0
0.235258210230741,0.8185606002807617,0
0.2372115736784275,0.821235179901123,0
0.2367232328165058,0.823981523513794,0
0.2347698693688193,0.8269269466400146,0
0.2452691979001342,0.8296082019805908,0
0.2433158344524477,0.8323249816894531,0
0.2362348919545842,0.8350400924682617,0
0.2362348919545842,0.8379840850830078,0
0.235258210230741,0.8406970500946045,0
0.2335490172140153,0.8434040546417236,0
0.2445366866072518,0.8460776805877686,0
0.2460017091930166,0.8490705490112305,0
0.2379440849713099,0.8517837524414062,0
0.2386765962641923,0.8545041084289551,0
0.2386765962641923,0.8574178218841553,0
0.2372115736784275,0.8601644039154053,0
0.2486875839335856,0.86287522315979,0
0.2503967769503112,0.865574836730957,0
0.2413624710047612,0.8685271739959717,0
0.240385789280918,0.8712058067321777,0
0.2376999145403491,0.8739743232727051,0
0.2347698693688193,0.8766427040100098,0
0.2440483457453302,0.8796486854553223,0
0.244292516176291,0.8823237419128418,0
0.2372115736784275,0.8850302696228027,0
0.2372115736784275,0.8877420425415039,0
0.236479062385545,0.8906867504119873,0
0.2355023806617018,0.8933978080749512,0
0.2464900500549383,0.8961126804351807,0
0.244292516176291,0.8987817764282227,0
0.2386765962641923,0.9017283916473388,0
0.2381882554022707,0.9044899940490724,0
0.2362348919545842,0.9071648120880128,0
0.235258210230741,0.9101181030273438,0
0.2489317543645464,0.9128973484039308,0
0.2452691979001342,0.9155738353729248,0
0.2394091075570747,0.9182407855987548,0
0.2374557441093883,0.9212267398834229,0
0.2381882554022707,0.9239392280578612,0
0.2345256989378585,0.9266042709350586,0
0.2438041753143693,0.9293179512023926,0
0.2433158344524477,0.9322659969329834,0
0.2359907215236234,0.9351975917816162,0
0.2362348919545842,0.9379096031188964,0
0.235258210230741,0.94065523147583,0
0.235258210230741,0.9443671703338624,0
0.2469783909168599,0.9470462799072266,0
0.2481992430716639,0.9497201442718506,0
0.2359907215236234,0.9524340629577636,0
0.2406299597118788,0.9551312923431396,0
0.2355023806617018,0.9578025341033936,0
0.2347698693688193,0.9605083465576172,0
0.2469783909168599,0.9632225036621094,0
0.2474667317787815,0.9658915996551514,0
0.2367232328165058,0.9686059951782228,0
0.2384324258332315,0.9712686538696288,0
0.236479062385545,0.9739727973937988,0
0.2347698693688193,0.9766817092895508,0
0.2438041753143693,0.9793651103973388,0
0.2428274935905261,0.9820339679718018,0
0.2374557441093883,0.9847800731658936,0
0.2335490172140153,0.987452507019043,0
0.2372115736784275,0.9901230335235596,0
0.2340373580759369,0.9928760528564452,0
0.2413624710047612,0.9955496788024902,0
0.2435600048834085,0.9982259273529052,0
0.2408741301428396,1.0009353160858154,0
0.2303748016115248,1.0036342144012451,0
0.2450250274691734,1.006321668624878,0
0.2328165059211329,1.0090413093566897,0
0.235258210230741,1.0117146968841553,0
0.240385789280918,1.0144221782684326,0
0.2418508118666829,1.0171394348144531,0
0.2291539494567207,1.0198111534118652,0
0.2398974484189964,1.0224897861480713,0
0.2333048467830545,1.025224685668945,0
0.2355023806617018,1.0278940200805664,0
0.245513368331095,1.030564785003662,0
0.2462458796239774,1.033306121826172,0
0.2328165059211329,1.0359711647033691,0
0.2396532779880356,1.0386366844177246,0
0.2330606763520937,1.0413403511047363,0
0.2333048467830545,1.0440452098846436,0
0.2423391527286045,1.046712875366211,0
0.2430716640214869,1.0494239330291748,0
0.2335490172140153,1.0520939826965332,0
0.2374557441093883,1.0547869205474854,0
0.2369674032474666,1.057487726211548,0
0.235258210230741,1.0601553916931152,0
0.2440483457453302,1.0628509521484375,0
0.2425833231595653,1.0655629634857178,0
0.236479062385545,1.0682287216186523,0
0.2333048467830545,1.0709071159362793,0
0.2355023806617018,1.0736415386199951,0
0.2325723354901721,1.076319456100464,0
0.2394091075570747,1.0789945125579834,0
0.2398974484189964,1.0817153453826904,0
0.2381882554022707,1.084420680999756,0
0.2289097790257599,1.0870931148529053,0
0.2345256989378585,1.0897996425628662,0
0.2308631424734464,1.0924749374389648,0
0.2398974484189964,1.0951764583587646,0
0.2491759247955072,1.097890853881836,0
0.2484434135026247,1.1005663871765137,0
0.2347698693688193,1.1032671928405762,0
0.2481992430716639,1.1059889793395996,0
0.2430716640214869,1.108668327331543,0
0.244292516176291,1.1113600730895996,0
0.2528384812599193,1.1141128540039062,0
0.253326822121841,1.116790533065796,0
0.2401416188499572,1.1195111274719238,0
0.2479550726407031,1.122185230255127,0
0.240385789280918,1.1248977184295654,0
0.240385789280918,1.1276140213012695,0
0.2503967769503112,1.1302881240844729,0
0.2508851178122329,1.132991075515747,0
0.2391649371261139,1.1357226371765137,0
0.2425833231595653,1.1383976936340332,0
0.2381882554022707,1.1410775184631348,0
0.2386765962641923,1.143822193145752,0
0.2499084360883896,1.14650297164917,0
0.2481992430716639,1.1491758823394775,0
0.2411183005738004,1.1519036293029783,0
0.2411183005738004,1.1546099185943604,0
0.240385789280918,1.1572811603546145,0
0.2428274935905261,1.1599860191345217,0
0.2579660603100964,1.1626591682434082,0
0.2577218898791356,1.1653707027435305,0
0.2582102307410572,1.1680819988250732,0
0.2513734586741545,1.170748949050903,0
0.254547674276645,1.173445701599121,0
0.2499084360883896,1.176158428192139,0
0.2538151629837626,1.1788322925567627,0
0.2560126968624099,1.1814935207366943,0
0.2547918447076058,1.184239387512207,0
0.2425833231595653,1.186920404434204,0
0.2503967769503112,1.18959641456604,0
0.2450250274691734,1.1923141479492188,0
0.2481992430716639,1.1950273513793943,0
0.2555243560004883,1.1979553699493408,0
0.2547918447076058,1.200777292251587,0
0.2423391527286045,1.2035846710205078,0
0.2484434135026247,1.206270456314087,0
0.2430716640214869,1.2089910507202148,0
0.2440483457453302,1.2116756439208984,0
0.2503967769503112,1.2143833637237549,0
0.2499084360883896,1.217106819152832,0
0.2374557441093883,1.2197778224945068,0
0.2460017091930166,1.2224528789520264,0
0.2386765962641923,1.225193738937378,0
0.2391649371261139,1.2278647422790527,0
0.2508851178122329,1.2305243015289309,0
0.2503967769503112,1.2332842350006104,0
0.236479062385545,1.2359490394592283,0
0.2418508118666829,1.238630771636963,0
0.2359907215236234,1.241346836090088,0
0.2342815285068977,1.2440574169158936,0
0.244292516176291,1.246720790863037,0
0.2440483457453302,1.2494373321533203,0
0.2355023806617018,1.2521014213562012,0
0.2362348919545842,1.2548103332519531,0
0.2325723354901721,1.257526159286499,0
0.227444756439995,1.2601940631866455,0
0.2320839946282504,1.2628920078277588,0
0.231351483335368,1.2656092643737793,0
0.2250030521303869,1.2682812213897705,0
0.2235380295446221,1.270961046218872,0
0.2284214381638383,1.2737228870391846,0
0.2225613478207788,1.2764005661010742,0
0.2267122451471126,1.2790648937225342,0
0.2284214381638383,1.2817840576171875,0
0.2281772677328775,1.284489631652832,0
0.2179221096325234,1.2871642112731934,0
0.2257355634232694,1.2898764610290527,0
0.2225613478207788,1.2925491333007812,0
0.226223904285191,1.2952513694763184,0
0.2315956537663288,1.2979683876037598,0
0.2315956537663288,1.3006393909454346,0
0.2181662800634842,1.3033602237701416,0
0.2284214381638383,1.306060791015625,0
0.222317177389818,1.308741331100464,0
0.2252472225613477,1.3114516735076904,0
0.2367232328165058,1.3141698837280271,0
0.2379440849713099,1.316842794418335,0
0.2257355634232694,1.3195552825927734,0
0.2325723354901721,1.3222260475158691,0
0.2267122451471126,1.3249342441558838,0
0.2325723354901721,1.327643632888794,0
0.2428274935905261,1.3303203582763672,0
0.2440483457453302,1.3330247402191162,0
0.2345256989378585,1.3357360363006592,0
0.2345256989378585,1.3384051322937012,0
0.2289097790257599,1.3410799503326416,0
0.2230496886827004,1.3438258171081543,0
0.2315956537663288,1.3465023040771484,0
0.231351483335368,1.349165916442871,0
0.2267122451471126,1.3518693447113037,0
0.2252472225613477,1.354597806930542,0
0.2279330973019167,1.3572700023651123,0
0.2247588816994261,1.3599772453308103,0
0.2347698693688193,1.3626470565795898,0
0.2337931876449761,1.365349531173706,0
0.2296422903186423,1.3680627346038818,0
0.2218288365278964,1.3707287311553955,0
0.2264680747161518,1.373436450958252,0
0.2218288365278964,1.3761475086212158,0
0.2242705408375045,1.3788201808929443,0
0.2293981198876815,1.381490707397461,0
0.2257355634232694,1.3842389583587646,0
0.2137712123061896,1.3869106769561768,0
0.227444756439995,1.3895866870880127,0
0.2228055182517396,1.392315149307251,0
0.2323281650592112,1.3950254917144775,0
0.2491759247955072,1.3976993560791016,0
0.2460017091930166,1.400420904159546,0
0.2406299597118788,1.403125286102295,0
0.254547674276645,1.4057884216308594,0
0.2484434135026247,1.4085111618041992,0
0.2538151629837626,1.4111826419830322,0
0.2616286167745085,1.4139025211334229,0
0.263581980222195,1.4166111946105957,0
0.2530826516908802,1.4192755222320557,0
0.2565010377243315,1.4219489097595217,0
0.2528384812599193,1.4246861934661863,0
0.2496642656574288,1.4274084568023682,0
0.2577218898791356,1.4301581382751465,0
0.2550360151385666,1.4329090118408203,0
0.2445366866072518,1.4355812072753906,0
0.2496642656574288,1.4382545948028564,0
0.2508851178122329,1.4409594535827637,0
0.2469783909168599,1.4436867237091064,0
0.2560126968624099,1.4463655948638916,0
0.2543035038456842,1.4490737915039062,0
0.2481992430716639,1.45173978805542,0
0.2450250274691734,1.4544484615325928,4
0.2462458796239774,1.4571573734283447,4
0.2460017091930166,1.4598369598388672,4
0.2481992430716639,1.462505340576172,4
0.2481992430716639,1.4652471542358398,4
0.2445366866072518,1.46791672706604,4
0.2372115736784275,1.4705824851989746,4
0.2450250274691734,1.473341941833496,4
0.2411183005738004,1.4760167598724363,4
0.2518617995360761,1.478682041168213,4
0.2626052984983518,1.481391191482544,4
0.2655353436698815,1.4841759204864502,4
0.2552801855695275,1.4868481159210205,4
0.2694420705652545,1.4895615577697754,4
0.263581980222195,1.492237567901611,4
0.268709559272372,1.4949355125427246,4
0.2782322060798436,1.4976537227630615,4
0.2814064216823342,1.5003232955932615,4
0.2711512635819801,1.503030776977539,4
0.2743254791844707,1.505739688873291,4
0.2691979001342937,1.5084247589111328,4
0.2657795141008423,1.511096715927124,4
0.2716396044439018,1.5138583183288574,4
0.2716396044439018,1.516531229019165,4
0.2599194237577829,1.5191967487335205,4
0.2618727872054693,1.5219056606292725,4
0.2574777194481747,1.5246224403381348,4
0.2511292882431937,1.5272996425628662,4
0.2547918447076058,1.5300099849700928,4
0.2523501403979977,1.5326838493347168,4
0.2474667317787815,1.535409450531006,4
0.2472225613478207,1.538102388381958,4
0.2460017091930166,1.5408170223236084,4
0.2440483457453302,1.5435659885406494,4
0.2489317543645464,1.5462448596954346,4
0.2481992430716639,1.548917531967163,4
0.2438041753143693,1.551626205444336,4
0.2381882554022707,1.5543293952941897,4
0.2481992430716639,1.5569980144500732,4
0.2462458796239774,1.5597140789031982,4
0.2667561958246855,1.5623886585235596,4
0.2821389329752166,1.5650897026062012,4
0.2750579904773531,1.5678048133850098,4
0.2640703210841166,1.5704693794250488,4
0.2938591136613355,1.5731773376464844,4
0.2960566475399828,1.5758919715881348,4
0.2970333292638261,1.5785629749298096,4
0.3055792943474544,1.5812368392944336,4
0.295812477109022,1.5839877128601074,4
0.2804297399584909,1.5866584777832031,4
0.2814064216823342,1.5893232822418213,4
0.2811622512513734,1.592036247253418,4
0.3058234647784152,1.5947608947753906,4
0.3199853497741423,1.5974295139312744,4
0.3285313148577706,1.6001367568969729,4
0.324136247100476,1.6028401851654053,4
0.3336588939079477,1.6055166721343994,4
0.3395189842510071,1.608248949050903,4
0.328042973995849,1.6109349727630615,4
0.3358564277865949,1.613640546798706,4
0.3343914052008301,1.6163649559020996,4
0.3297521670125747,1.6190311908721924,4
0.3258454401172017,1.621713638305664,4
0.3155902820168477,1.6244573593139648,4
0.3153461115858869,1.6271278858184814,4
0.3221828836527896,1.6298012733459473,4
0.3209620314979855,1.6325078010559082,4
0.3351239164937125,1.6352109909057615,4
0.3739470150164814,1.637894630432129,4
0.3688194359663044,1.6406080722808838,4
0.3751678671712855,1.6433093547821045,4
0.4032474667317787,1.6459834575653076,4
0.3995849102673665,1.6487267017364502,4
0.3937248199243071,1.6513969898223877,4
0.3844463435477963,1.654099464416504,4
0.4071541936271516,1.656816482543945,4
0.401538273715053,1.6594884395599363,4
0.3866438774264435,1.6621534824371338,4
0.3837138322549138,1.6649055480957031,4
0.3846905139787571,1.6675782203674316,4
0.4044683188865827,1.6702508926391602,4
0.4061775119033084,1.6729938983917236,4
0.3986082285435233,1.6756680011749268,4
0.405445000610426,1.6783335208892822,4
0.4059333414723476,1.6810472011566162,4
0.4086192162129165,1.6837480068206787,4
0.4237577829324868,1.686418056488037,4
0.4237577829324868,1.6891329288482666,4
0.4357221340495665,1.6918087005615234,4
0.4594066658527651,1.6945147514343262,4
0.480161152484434,1.6972265243530271,4
0.4950555487730435,1.699901103973389,4
0.5121474789403004,1.7025747299194336,4
0.519228421438164,1.7053179740905762,4
0.533390306433891,1.7079856395721436,4
0.5321694542790869,1.7106668949127195,4
0.5119033085093396,1.7135288715362549,4
0.5109266267854964,1.716197490692139,4
0.5057990477353194,1.7188756465911863,4
0.4904163105847881,1.7215948104858398,4
0.5121474789403004,1.7243022918701172,4
0.5512147478940301,1.726970672607422,4
0.5641557807349531,1.7296836376190186,4
0.5648882920278355,1.7323527336120603,4
0.5722134049566598,1.735133409500122,4
0.5783176657306801,1.7378427982330322,4
0.6098156513246247,1.740514039993286,4
0.5907703577096814,1.743217706680298,4
0.5722134049566598,1.7459311485290527,4
0.561714076425345,1.748605489730835,4
0.5582956903918936,1.7512784004211426,4
0.5519472591869126,1.7540149688720703,4
0.5507264070321085,1.7566843032836914,4
0.5355878403125383,1.7593622207641602,4
0.5187400805762423,1.762049436569214,4
0.5082407520449275,1.764744758605957,4
0.4952997192040043,1.767449140548706,4
0.4743010621413746,1.770132064819336,4
0.4550115980954705,1.7728338241577148,4
0.4547674276645097,1.7755403518676758,4
0.45183738249298,1.778212308883667,4
0.4452447808570381,1.7808825969696045,4
0.4301062141374678,1.783623456954956,4
0.4313270662922719,1.7862911224365234,4
0.4611158588694908,1.7889649868011477,4
0.4657550970577462,1.791673183441162,4
0.4872420949822975,1.7943782806396484,4
0.5018923208399464,1.7970445156097412,4
0.4918813331705529,1.7997558116912842,4
0.4735685508484921,1.8024218082427976,4
0.475033573434257,1.8051245212554927,4
0.4638017336100597,1.8078372478485107,4
0.4657550970577462,1.810518741607666,4
0.4684409717983151,1.8132312297821045,4
0.4691734830911975,1.8159420490264893,4
0.4813820046392381,1.818609476089477,4
0.4718593578317664,1.8212809562683103,4
0.4686851422292759,1.8240313529968264,4
0.4664876083506286,1.8267076015472408,4
0.4716151874008056,1.8293769359588623,4
0.4625808814552556,1.8320863246917725,4
0.4598950067146867,1.8348121643066408,4
0.4423147356855084,1.837480545043945,4
0.4501281894762543,1.840192794799805,4
0.4547674276645097,1.842902898788452,4
0.4845562202417286,1.845573902130127,4
0.4977414235136124,1.8482906818389893,4
0.4845562202417286,1.8509619235992432,4
0.4735685508484921,1.8536760807037356,4
0.4904163105847881,1.8564002513885496,4
0.4835795385178854,1.8590893745422363,4
0.4755219142961786,1.8617615699768064,4
0.4601391771456475,1.8645026683807373,4
0.4469539738737638,1.8671739101409912,4
0.4418263948235867,1.869842767715454,4
0.4437797582712732,1.87255334854126,4
0.4384080087901354,1.8752601146698,4
0.4550115980954705,1.8779280185699463,4
0.4686851422292759,1.880645751953125,4
0.4657550970577462,1.883382558822632,4
0.4562324502502746,1.886061429977417,4
0.4691734830911975,1.8887698650360107,4
0.4764985960200218,1.8914484977722168,4
0.4650225857648637,1.894165277481079,4
0.4808936637773164,1.8968772888183596,4
0.4821145159321205,1.899542093276977,4
0.4923696740324745,1.9022150039672847,4
0.4882187767061408,1.9049897193908687,4
0.485288731534611,1.9076685905456543,4
0.5038456842876329,1.9103450775146484,4
0.5226468074716153,1.9131104946136477,4
0.5231351483335369,1.9157841205596924,4
0.521670125747772,1.918454885482788,4
0.5018923208399464,1.9211618900299072,4
0.4911488218776705,1.9238746166229248,4
0.4826028567940421,1.926544189453125,4
0.4992064460993772,1.9292564392089844,4
0.4972530826516907,1.931934118270874,4
0.4913929923086313,1.9346392154693604,4
0.485288731534611,1.937352180480957,4
0.4872420949822975,1.9400250911712649,4
0.471126846538884,1.9426915645599363,4
0.4540349163716273,1.9454333782196045,4
0.4611158588694908,1.9481065273284912,4
0.4601391771456475,1.9507853984832764,4
0.4437797582712732,1.9535503387451167,4
0.4513490416310584,1.956223964691162,4
0.4386521792210962,1.9588911533355715,4
0.4535465755097057,1.96160101890564,4
0.4630692223171773,1.964303731918335,4
0.4547674276645097,1.966980457305908,4
0.4396288609449394,1.969687938690185,4
0.4374313270662922,1.97121000289917,4
0.4471981443047246,1.9725432395935056,4
0.4533024050787448,1.9747185707092283,4
0.4476864851666462,1.9760890007019043,4
0.453058234647784,1.9774270057678225,4
0.4640459040410205,1.9787638187408447,4
0.4689293126602367,1.9800941944122317,4
0.4640459040410205,1.9814274311065676,4
0.4696618239531192,1.9827804565429688,4
0.4723476986936881,1.984280347824097,4
0.4628250518862165,1.9856197834014893,4
0.456964961543157,1.986954927444458,4
0.4606275180075692,1.9882936477661133,4
0.4618483701623732,1.989629030227661,4
0.4650225857648637,1.990962028503418,4
0.4601391771456475,1.9923193454742432,4
0.46087168843853,1.9936747550964355,4
0.4640459040410205,1.995157480239868,4
0.4689293126602367,1.9964938163757324,4
0.4664876083506286,1.9978299140930176,4
0.4613600293004516,1.999163627624512,4
0.4535465755097057,2.000515937805176,4
0.4489073373214503,2.001851320266724,4
0.4396288609449394,2.0032007694244385,4
0.4574533024050786,2.00467586517334,4
0.4667317787815894,2.006016254425049,4
0.4601391771456475,2.007362604141236,4
0.4550115980954705,2.008707046508789,4
0.4540349163716273,2.01005220413208,4
0.4574533024050786,2.0113933086395264,4
0.4718593578317664,2.0127289295196533,4
0.4764985960200218,2.0140881538391118,4
0.4696618239531192,2.015597105026245,4
0.471126846538884,2.016934871673584,4
0.4725918691246489,2.01827335357666,4
0.4684409717983151,2.0196094512939453,4
0.4696618239531192,2.0209460258483887,4
0.4691734830911975,2.0222833156585693,4
0.4638017336100597,2.0236616134643555,4
0.4579416432670002,2.025139093399048,4
0.4640459040410205,2.026482343673706,4
0.4764985960200218,2.027821779251098,4
0.4901721401538272,2.0291616916656494,4
0.4904163105847881,2.030499219894409,4
0.4869979245513367,2.031853675842285,4
0.4962764009278475,2.033207416534424,4
0.4923696740324745,2.0345451831817627,4
0.4882187767061408,2.0360264778137207,4
0.4843120498107678,2.037367582321167,4
0.4782077890367475,2.0387065410614014,4
0.4706385056769624,2.0400681495666504,4
0.4633133927481381,2.041405200958252,4
0.4540349163716273,2.0427401065826416,4
0.4452447808570381,2.044092893600464,4
0.4432914174093516,2.045573234558105,4
0.4393846905139786,2.0469136238098145,4
0.4357221340495665,2.0482733249664307,4
0.4393846905139786,2.049612045288086,4
0.4305945549993895,2.0509510040283203,4
0.4215602490538395,2.0522913932800293,4
0.4149676474178976,2.053647518157959,4
0.4218044194848003,2.054985284805298,4
0.4183860334513489,2.056487560272217,4
0.4142351361250151,2.057821035385132,4
0.4071541936271516,2.0591578483581543,4
0.4032474667317787,2.060495376586914,4
0.4078867049200341,2.06183123588562,4
0.414479306555976,2.063185214996338,4
0.411793431815407,2.0645408630371094,4
0.4071541936271516,2.066014528274536,4
0.4093517275057989,2.0673534870147705,4
0.4198510560371138,2.0686910152435303,4
0.4242461237944084,2.070026159286499,4
0.4266878281040165,2.071531057357788,4
0.44280307654743,2.0742650032043457,4
0.4450006104260773,2.077209949493408,4
0.4454889512879989,2.0799262523651123,4
0.437675497497253,2.0825953483581543,4
0.4410938835307043,2.085304021835327,4
0.429862043706507,2.0882856845855717,4
0.4230252716396043,2.090968132019043,4
0.4122817726773287,2.093669414520264,4
0.4142351361250151,2.096376657485962,4
0.4093517275057989,2.099323511123657,4
0.3993407398364057,2.101990938186645,4
0.3866438774264435,2.104734420776367,4
0.3839580026858746,2.10760235786438,4
0.3759003784641679,2.1103384494781494,4
0.3871322182883652,2.113104343414306,4
0.3868880478574044,2.115783214569092,4
0.3768770601880111,2.1187291145324707,4
0.3683310951043828,2.1214394569396973,4
0.3671102429495787,2.124150514602661,4
0.3514833353680868,2.126823902130127,4
0.3414723476986936,2.129833459854126,4
0.3395189842510071,2.132509708404541,4
0.3290196557196922,2.135221004486084,4
0.3334147234769868,2.1379318237304688,4
0.3468440971798314,2.1408793926239014,4
0.3390306433890855,2.1436240673065186,4
0.3368331095104382,2.146301507949829,4
0.331949700891222,2.1489665508270264,4
0.3277988035648882,2.1519501209259038,4
0.3204736906360639,2.154649019241333,4
0.3207178610670247,2.1573214530944824,4
0.3163227933097301,2.160319805145264,4
0.3273104627029666,2.163052082061768,4
0.3341472347698693,2.1657235622406006,4
0.3299963374435355,2.168435573577881,4
0.3285313148577706,2.171368360519409,4
0.3336588939079477,2.1740763187408447,4
0.328042973995849,2.176793575286865,4
0.328042973995849,2.179466485977173,4
0.3321938713221828,2.182406187057495,4
0.322915394945672,2.1851494312286377,4
0.3160786228787693,2.187821865081787,4
0.3263337809791233,2.19049072265625,4
0.322915394945672,2.193528175354004,4
0.3502624832132828,2.196208238601685,4
0.3497741423513612,2.19887638092041,4
0.3451349041631057,2.201862573623657,4
0.3329263826150652,2.2045674324035645,4
0.3434257111463801,2.207563638687134,4
0.3407398364058112,2.210737943649292,4
0.3556342326944206,2.214611768722534,4
0.3497741423513612,2.218024492263794,4
0.3448907337321449,2.220787048339844,4
0.3812721279453057,2.224155902862549,4
0.3719936515687949,2.227712392807007,4
0.3915272860456598,2.2304489612579346,4
0.3849346844097179,2.233659505844116,4
0.3688194359663044,2.236703634262085,4
0.373214503723599,2.239861249923706,4
0.3636918569161274,2.2429232597351074,4
0.3759003784641679,2.2464141845703125,4
0.3788304236356976,2.249550104141236,4
0.3702844585520692,2.2526841163635254,4
0.3715053107068733,2.2562215328216557,4
0.3612501526065192,2.259239196777344,4
0.3531925283848125,2.262269973754883,4
0.3546575509705774,2.265809774398804,4
0.3507508240752044,2.268666505813598,4
0.3387864729581247,2.271862506866455,4
0.340984006836772,2.2753984928131104,4
0.3585642778659503,2.2782440185546875,4
0.3475766084727139,2.2813470363616943,4
0.3495299719204003,2.2845823764801025,4
0.3429373702844585,2.2876739501953125,4
0.3534366988157733,2.2907185554504395,4
0.351239164937126,2.2939043045043945,4
0.3566109144182638,2.297002077102661,4
0.3536808692467341,2.3000197410583496,4
0.3395189842510071,2.303382873535156,4
0.3387864729581247,2.3061649799346924,4
0.331949700891222,2.309049367904663,4
0.3329263826150652,2.312142372131348,4
0.3236479062385544,2.315657138824463,4
0.3263337809791233,2.318648099899292,4
0.3185203271883774,2.321789026260376,4
0.3290196557196922,2.3252387046813965,4
0.3180319863264558,2.3283464908599854,4
0.3395189842510071,2.331357955932617,4
0.3329263826150652,2.33476185798645,4
0.3270662922720058,2.3378448486328125,4
0.3246245879623977,2.340903282165528,4
0.3109510438285923,2.344266653060913,4
0.3202295202051031,2.3474466800689697,4
0.315101941154926,2.3504765033721924,4
0.2977658405567085,2.353827476501465,4
0.304846783054572,2.356846332550049,4
0.2970333292638261,2.3597488403320312,4
0.3038701013307288,2.3627257347106934,4
0.3141252594310828,2.3662118911743164,4
0.3187644976193382,2.369067668914795,4
0.3146136002930044,2.371774435043335,4
0.3246245879623977,2.3753695487976074,4
0.3221828836527896,2.3784899711608887,4
0.3302405078744963,2.38123083114624,4
0.3234037358075936,2.3844709396362305,4
0.3214503723599071,2.3874664306640625,4
0.3202295202051031,2.3905532360076904,4
0.308753509949945,2.3939101696014404,4
0.3028934196068855,2.3969972133636475,4
0.3006958857282382,2.40024995803833,4
0.2950799658161396,2.403721332550049,4
0.2965449884019044,2.406766891479492,4
0.2884873641801977,2.409900426864624,4
0.2921499206446099,2.413167715072632,4
0.294591624954218,2.4166269302368164,4
0.2870223415944328,2.4195919036865234,4
0.2843364668538639,2.4226179122924805,4
0.2753021609083139,2.426105260848999,4
0.2579660603100964,2.429093360900879,4
0.272616286167745,2.431994915008545,4
0.2638261506531558,2.4353723526000977,4
0.2569893785862531,2.438302993774414,4
0.2591869124649004,2.441331624984741,4
0.2523501403979977,2.4446754455566406,4
0.2547918447076058,2.447492837905884,4
0.2550360151385666,2.4505057334899902,4
0.2499084360883896,2.453944206237793,4
0.2560126968624099,2.4569509029388428,4
0.2501526065193504,2.459662675857544,4
0.2477109022097423,2.462573528289795,4
0.258454401172018,2.466043472290039,4
0.2579660603100964,2.46897029876709,4
0.2518617995360761,2.47208309173584,4
0.2506409473812721,2.4757745265960693,4
0.2560126968624099,2.47881293296814,4
0.259675253326822,2.4819650650024414,4
0.2638261506531558,2.4854044914245605,4
0.2523501403979977,2.4885377883911133,4
0.2528384812599193,2.4915945529937744,4
0.2657795141008423,2.495054244995117,4
0.277743865217922,2.4981448650360107,4
0.282871444268099,2.501168727874756,4
0.2679770479794896,2.5046725273132324,4
0.2716396044439018,2.50745701789856,4
0.2699304114271761,2.510473728179932,4
0.2762788426321572,2.513781309127808,4
0.2753021609083139,2.5165135860443115,4
0.2711512635819801,2.5192267894744877,4
0.2704187522890977,2.521944284439087,4
0.2757905017702355,2.5249481201171875,4
0.2792088878036869,2.527662992477417,4
0.2960566475399828,2.5303306579589844,4
0.2909290684898058,2.5333092212677,4
0.285557319008668,2.5360231399536133,4
0.2833597851300207,2.5386962890625,4
0.2887315346111585,2.541367053985596,4
0.2914174093517274,2.544384002685547,4
0.3028934196068855,2.547058582305908,4
0.3160786228787693,2.549733638763428,4
0.3136369185691612,2.5524375438690186,4
0.3141252594310828,2.5554444789886475,4
0.3163227933097301,2.5581202507019043,4
0.3182761567574166,2.5608439445495605,4
0.3375656208033206,2.5638320446014404,4
0.3414723476986936,2.5665132999420166,4
0.3380539616652422,2.569221019744873,4
0.3312171895983395,2.5718979835510254,4
0.333170553046026,2.57496190071106,4
0.3265779514100841,2.577678680419922,4
0.3285313148577706,2.5803472995758057,4
0.3243804175314368,2.583341121673584,4
0.3163227933097301,2.586036205291748,4
0.3121718959833963,2.5887134075164795,4
0.308753509949945,2.591394186019897,4
0.3077768282261017,2.59440279006958,4
0.3102185325357098,2.597079277038574,4
0.3104627029666706,2.599794387817383,4
0.3072884873641801,2.6024608612060547,4
0.3155902820168477,2.605456113815308,4
0.3109510438285923,2.608168125152588,4
0.3019167378830423,2.610836267471313,4
0.304846783054572,2.6138100624084477,4
0.3016725674520815,2.616565227508545,4
0.2953241362471004,2.619250059127808,4
0.2899523867659626,2.621926069259644,4
0.2897082163350017,2.6256954669952397,4
0.2821389329752166,2.6283833980560303,4
0.2894640459040409,2.631054162979126,4
0.2887315346111585,2.633821964263916,4
0.2794530582346477,2.636492729187012,4
0.2760346722011964,2.6391611099243164,4
0.2677328775485288,2.641865968704224,4
0.2648028323769991,2.6445767879486084,4
0.2608961054816261,2.6472413539886475,4
0.259675253326822,2.6499757766723637,4
0.2589427420339396,2.6526453495025635,4
0.2543035038456842,2.6553702354431152,4
0.2535709925528018,2.658056735992432,4
0.2530826516908802,2.660727024078369,4
0.2638261506531558,2.663481950759888,4
0.2665120253937247,2.666149139404297,4
0.2628494689293126,2.668807983398437,4
0.2521059699670369,2.671537160873413,4
0.2589427420339396,2.674264907836914,4
0.2586985716029788,2.676934003829956,4
0.2679770479794896,2.679637670516968,4
0.267488707117568,2.6823112964630127,4
0.268709559272372,2.6850149631500244,4
0.2547918447076058,2.687722682952881,4
0.2608961054816261,2.69039249420166,4
0.2601635941887437,2.6931915283203125,4
0.2616286167745085,2.695906400680542,4
0.2648028323769991,2.6985769271850586,4
0.2704187522890977,2.7012434005737305,4
0.2601635941887437,2.703985929489136,4
0.2679770479794896,2.7066450119018555,4
0.2594310828958612,2.709310531616211,4
0.2606519350506653,2.712022066116333,4
0.2650470028079599,2.714729070663452,4
0.2601635941887437,2.7173986434936523,4
0.2499084360883896,2.72011947631836,4
0.258454401172018,2.72282075881958,4
0.2538151629837626,2.725489854812622,4
0.2608961054816261,2.7281932830810547,4
0.2755463313392747,2.730865240097046,4
0.2738371383225491,2.733639478683472,4
0.2731046270296666,2.7363524436950684,4
0.2794530582346477,2.73901629447937,4
0.2796972286656085,2.7416908740997314,4
0.2811622512513734,2.744429588317871,4
0.2960566475399828,2.747105598449707,4
0.294591624954218,2.749779462814331,4
0.2914174093517274,2.752490520477295,4
0.2872665120253936,2.7551894187927246,4
0.2965449884019044,2.757861375808716,4
0.2953241362471004,2.7605674266815186,4
0.2989866927115125,2.7632687091827397,4
0.2941032840922963,2.765934944152832,4
0.2936149432303747,2.7686476707458496,4
0.2796972286656085,2.7713208198547363,4
0.2860456598705896,2.7740280628204346,4
0.282871444268099,2.77673602104187,4
0.2901965571969234,2.779402732849121,4
0.2921499206446099,2.7820661067962646,4
0.2972774996947869,2.784806728363037,4
0.282871444268099,2.787468910217285,4
0.2892198754730801,2.7901320457458496,4
0.2804297399584909,2.792891502380371,4
0.2811622512513734,2.795567512512207,4
0.2875106824563544,2.7982382774353027,4
0.2858014894396288,2.800954341888428,4
0.2772555243560004,2.8036649227142334,4
0.2743254791844707,2.806333541870117,4
0.2694420705652545,2.8090367317199707,4
0.2577218898791356,2.811710834503174,4
0.2660236845318031,2.814404964447021,4
0.2655353436698815,2.8171277046203613,4
0.2560126968624099,2.819795608520508,4
0.2543035038456842,2.8224596977233887,4
0.2506409473812721,2.8252065181732178,4
0.2477109022097423,2.827885627746582,4
0.2523501403979977,2.830547332763672,4
0.2506409473812721,2.8332884311676025,4
0.2450250274691734,2.835967302322388,4
0.2413624710047612,2.838641881942749,4
0.244292516176291,2.8413586616516118,4
0.2445366866072518,2.844069480895996,4
0.2499084360883896,2.846746921539306,4
0.2508851178122329,2.849454641342163,4
0.2508851178122329,2.8521175384521484,4
0.2391649371261139,2.8548178672790527,4
0.2423391527286045,2.8575332164764404,4
0.2423391527286045,2.860204696655273,4
0.2367232328165058,2.862903594970703,4
0.2391649371261139,2.865654706954956,4
0.2355023806617018,2.86832857131958,4
0.222317177389818,2.871000289916992,4
0.2320839946282504,2.873740673065185,4
0.2289097790257599,2.876415252685547,4
0.2325723354901721,2.879089832305908,4
0.2330606763520937,2.881805181503296,0
0.2345256989378585,2.8845055103302,0
0.2225613478207788,2.887176990509033,0
0.2250030521303869,2.8898844718933105,0
0.2188987913563667,2.892550230026245,0
0.212062019289464,2.8952455520629883,0
0.2169454279086802,2.897953510284424,0
0.2169454279086802,2.900623083114624,0
0.2088878036869734,2.9033467769622803,0
0.2118178488585032,2.906036853790283,0
0.2098644854108167,2.908714056015014,0
0.2140153827371504,2.911397695541382,0
0.2179221096325234,2.914157629013061,0
0.2145037235990721,2.916837453842163,0
0.2113295079965815,2.919552087783813,0
0.2071786106702478,2.9222233295440674,0
0.2047369063606396,2.924934148788452,0
0.2020510316200707,2.9276669025421143,0
0.2086436332560126,2.9303383827209477,0
0.2115736784275423,2.9330434799194336,0
0.2137712123061896,2.935760259628296,0
0.2079111219631302,2.9384238719940186,0
0.2176779392015626,2.9410996437072754,0
0.2127945305823464,2.943840265274048,0
0.2101086558417775,2.946508407592773,0
0.213282871444268,2.949182271957397,0
0.2142595531681113,2.951897382736206,0
0.2040043950677572,2.9546010494232178,0
0.2145037235990721,2.9572746753692627,0
0.2086436332560126,2.95997953414917,0
0.2101086558417775,2.9626588821411133,0
0.2196313026492491,2.965351819992065,0
0.2203638139421315,2.968066930770874,0
0.2074227811012086,2.970737934112549,0
0.2218288365278964,2.973440647125244,0
0.2179221096325234,2.9761483669281006,0
0.2196313026492491,2.9788174629211426,0
0.2311073129044072,2.9814844131469727,0
0.2333048467830545,2.9842283725738525,0
0.2247588816994261,2.986894130706787,0
0.2293981198876815,2.9895665645599365,0
0.2264680747161518,2.992275714874268,0
0.226223904285191,2.994985580444336,0
0.2323281650592112,2.997652769088745,0
0.2320839946282504,3.0003738403320312,0
0.2252472225613477,3.003084897994995,0
0.2252472225613477,3.0057590007781982,0
0.2242705408375045,3.008472204208374,0
0.221096325235014,3.011146783828736,0
0.2269564155780734,3.014073133468628,0
0.227444756439995,3.016794443130493,0
0.2225613478207788,3.019474506378174,0
0.2169454279086802,3.0221481323242188,0
0.2193871322182883,3.0249009132385254,0
0.2130387010133072,3.0275747776031494,0
0.2149920644609937,3.030240058898926,0
0.2188987913563667,3.032999992370605,0
0.2188987913563667,3.035670280456543,0
0.2088878036869734,3.0383400917053223,0
0.218410450494445,3.0410492420196533,0
0.2140153827371504,3.043755531311035,0
0.217189598339641,3.0464236736297607,0
0.2225613478207788,3.049131155014038,0
0.2235380295446221,3.051795721054077,0
0.2110853375656207,3.0544984340667725,0
0.2208521548040531,3.0572056770324707,0
0.2149920644609937,3.059870958328247,0
0.2169454279086802,3.0625388622283936,0
0.2269564155780734,3.0652847290039062,0
0.2284214381638383,3.067955493927002,0
0.217189598339641,3.0706281661987305,0
0.2242705408375045,3.07336688041687,0
0.2196313026492491,3.076037883758545,0
0.2218288365278964,3.0787062644958496,0
0.2315956537663288,3.08141565322876,0
0.2335490172140153,3.0841174125671387,0
0.2242705408375045,3.086786985397339,0
0.227444756439995,3.0894980430603027,0
0.2269564155780734,3.092162847518921,0
0.226223904285191,3.094860553741455,0
0.2406299597118788,3.097572565078736,0
0.2420949822976437,3.1002449989318848,0
0.2401416188499572,3.102944612503052,0
0.2374557441093883,3.105649948120117,0
0.2394091075570747,3.108330249786377,0
0.235258210230741,3.110991954803467,0
0.2398974484189964,3.1137402057647705,0
0.2413624710047612,3.116410732269287,0
0.2391649371261139,3.1190905570983887,0
0.2296422903186423,3.1218068599700928,0
0.2372115736784275,3.1245205402374268,0
0.2325723354901721,3.127185344696045,0
0.2357465510926626,3.129889965057373,0
0.2418508118666829,3.132561445236206,0
0.2413624710047612,3.135260581970215,0
0.227444756439995,3.137967348098755,0
0.2369674032474666,3.140641450881958,0
0.2306189720424856,3.143364667892456,0
0.2320839946282504,3.146057367324829,0
0.2413624710047612,3.1487274169921875,0
0.2423391527286045,3.1514174938201904,0
0.2301306311805639,3.1541552543640137,0
0.2376999145403491,3.156827211380005,0
0.2320839946282504,3.1595287322998047,0
0.2315956537663288,3.1622021198272705,0
0.2420949822976437,3.1649169921875,0
0.2425833231595653,3.1676249504089355,0
0.231351483335368,3.1702914237976074,0
0.2340373580759369,3.1729979515075684,0
0.2306189720424856,3.175701141357422,0
0.2291539494567207,3.1783719062805176,0
0.2430716640214869,3.181042194366455,0
0.2425833231595653,3.183807134628296,0
0.2362348919545842,3.1864850521087646,0
0.2362348919545842,3.189148187637329,0
0.2391649371261139,3.191858291625977,0
0.2362348919545842,3.1945574283599854,0
0.2430716640214869,3.1972289085388184,0
0.244292516176291,3.199941396713257,0
0.240385789280918,3.2026150226593018,0
0.231351483335368,3.2053158283233643,0
0.2379440849713099,3.2080533504486084,0
0.2340373580759369,3.2107372283935547,0
0.2381882554022707,3.213444709777832,0
0.2423391527286045,3.2161529064178467,0
0.2423391527286045,3.218834400177002,0
0.2296422903186423,3.2215163707733154,0
0.2376999145403491,3.224274158477783,0
0.2325723354901721,3.226949691772461,0
0.2340373580759369,3.2296178340911865,0
0.2438041753143693,3.232327699661255,0
0.2423391527286045,3.235032320022583,0
0.2298864607496031,3.237706422805786,0
0.2367232328165058,3.240412712097168,0
0.2301306311805639,3.243190288543701,0
0.2389207666951531,3.245867967605591,0
0.2543035038456842,3.2485692501068115,0
0.259675253326822,3.251237630844116,0
0.2565010377243315,3.2539448738098145,0
0.2616286167745085,3.25665545463562,0
0.2560126968624099,3.2593228816986084,0
0.2547918447076058,3.2619848251342773,0
0.2655353436698815,3.264732837677002,0
0.263581980222195,3.2674005031585693,0
0.2540593334147234,3.270068645477295,0
0.2538151629837626,3.2728216648101807,0
0.2521059699670369,3.2754909992218018,0
0.2503967769503112,3.278151512145996,0
0.2582102307410572,3.280860424041748,0
0.2574777194481747,3.283559799194336,0
0.2530826516908802,3.286229133605957,0
0.2464900500549383,3.288943290710449,0
0.2496642656574288,3.291620969772339,0
0.2445366866072518,3.294325828552246,0
0.2535709925528018,3.2970376014709477,0
0.2535709925528018,3.2997000217437744,0
0.2521059699670369,3.302370548248291,0
0.2401416188499572,3.305112838745117,0
0.2452691979001342,3.307788372039795,0
0.2391649371261139,3.310455322265625,0
0.2423391527286045,3.3131957054138184,0
0.2523501403979977,3.315861940383911,0
0.2499084360883896,3.318544864654541,0
0.2355023806617018,3.32126784324646,0
0.2489317543645464,3.3239858150482178,0
0.2430716640214869,3.326655864715576,0
0.2440483457453302,3.329374313354492,0
0.2543035038456842,3.332045078277588,0
0.2538151629837626,3.3347482681274414,0
0.240385789280918,3.337456226348877,0
0.2469783909168599,3.3401358127593994,0
0.2411183005738004,3.3428311347961426,0
0.2406299597118788,3.345544576644897,0
0.2501526065193504,3.348206043243408,0
0.2499084360883896,3.350892305374145,0
0.2406299597118788,3.353640079498291,0
0.2420949822976437,3.3563108444213867,0
0.2391649371261139,3.3589835166931152,0
0.2362348919545842,3.361699104309082,0
0.2450250274691734,3.3644068241119385,0
0.2440483457453302,3.3670804500579834,0
0.2389207666951531,3.36979079246521,0
0.235258210230741,3.3724617958068848,0
0.2372115736784275,3.3751702308654785,0
0.2318398241972896,3.377885103225708,0
0.2374557441093883,3.380559206008911,0
0.2401416188499572,3.383267641067505,0
0.2369674032474666,3.3859763145446777,0
0.2259797338542302,3.3886568546295166,0
0.2257355634232694,3.391342163085937,0
0.2218288365278964,3.3940882682800293,0
0.2206079843730923,3.3967792987823486,0
0.2247588816994261,3.399502754211426,0
0.226223904285191,3.4021713733673096,0
0.2127945305823464,3.404882431030273,0
0.222317177389818,3.407588243484497,0
0.2167012574777194,3.410269260406494,0
0.2186546209254058,3.4129891395568848,0
0.2281772677328775,3.41570782661438,0
0.2284214381638383,3.4183802604675293,0
0.2157245757538761,3.421069622039795,0
0.2257355634232694,3.423819303512573,0
0.2198754730802099,3.426496982574463,0
0.2213404956659748,3.4291608333587646,0
0.2320839946282504,3.4318771362304688,0
0.2335490172140153,3.4345855712890625,0
0.2228055182517396,3.4372575283050537,0
0.227444756439995,3.440042018890381,0
0.2225613478207788,3.44283127784729,0
0.2237821999755829,3.445507049560547,0
0.2345256989378585,3.448223114013672,0
0.2345256989378585,3.450892210006714,0
0.2264680747161518,3.4535939693450928,0
0.2267122451471126,3.4562976360321045,0
0.2267122451471126,3.4589686393737797,0
0.2254913929923085,3.4616341590881348,0
0.2342815285068977,3.464378118515014,0
0.236479062385545,3.4670422077178955,0
0.2291539494567207,3.4697155952453613,0
0.2237821999755829,3.4724209308624268,0
0.2276889268709558,3.4751312732696533,0
0.2242705408375045,3.4777984619140625,0
0.2284214381638383,3.480508327484131,0
0.2301306311805639,3.4832136631011963,0
0.2298864607496031,3.4858880043029785,0
0.2198754730802099,3.488598346710205,0
0.2269564155780734,3.4912726879119877,0
0.2225613478207788,3.4940664768218994,0
0.2264680747161518,3.49678897857666,0
0.2323281650592112,3.499452352523804,0
0.2345256989378585,3.50212025642395,0
0.2218288365278964,3.504865884780884,0
0.2335490172140153,3.5075433254241943,0
0.2264680747161518,3.510217905044556,0
0.2289097790257599,3.512984037399292,0
0.2391649371261139,3.515655755996704,0
0.240385789280918,3.5183253288269043,0
0.2281772677328775,3.5210516452789307,0
0.2359907215236234,3.523773193359375,0
0.2301306311805639,3.5264458656311035,0
0.2308631424734464,3.5291643142700195,0
0.2413624710047612,3.531838178634644,0
0.2413624710047612,3.5345520973205566,0
0.2303748016115248,3.5372655391693115,0
0.2323281650592112,3.5399389266967773,0
0.2276889268709558,3.542609214782715,0
0.2291539494567207,3.545347213745117,0
0.2374557441093883,3.548011779785156,0
0.2379440849713099,3.5507113933563232,0
0.2323281650592112,3.553463697433472,0
0.2311073129044072,3.556143522262573,0
0.2325723354901721,3.5588138103485107,0
0.2323281650592112,3.5615358352661133,0
0.2433158344524477,3.5642361640930176,0
0.2440483457453302,3.566909074783325,0
0.2406299597118788,3.5696122646331787,0
0.2328165059211329,3.57228946685791,0
0.2386765962641923,3.57499623298645,0
0.2347698693688193,3.577702283859253,0
0.2389207666951531,3.5803747177124023,0
0.2423391527286045,3.5830748081207275,0
0.2423391527286045,3.5857837200164795,0
0.2296422903186423,3.5884547233581543,0
0.2391649371261139,3.591131687164306,0
0.2335490172140153,3.593879461288452,0
0.2372115736784275,3.5965490341186523,0
0.2469783909168599,3.5992238521575928,0
0.2477109022097423,3.6019387245178223,0
0.2347698693688193,3.604645013809204,0
0.2438041753143693,3.607332468032837,0
0.236479062385545,3.6100239753723145,0
0.2381882554022707,3.61270809173584,0
0.2499084360883896,3.615453720092773,0
0.2477109022097423,3.618134498596192,0
0.235258210230741,3.620819330215454,0
0.2438041753143693,3.623586177825928,0
0.2418508118666829,3.626263380050659,0
0.2413624710047612,3.628934383392334,0
0.2501526065193504,3.631633758544922,0
0.2491759247955072,3.6343648433685294,0
0.2391649371261139,3.637039661407471,0
0.240385789280918,3.639748096466065,0
0.2381882554022707,3.6424272060394287,0
0.235258210230741,3.6451239585876474,0
0.2413624710047612,3.647832155227661,0
0.2391649371261139,3.650512218475342,0
0.2372115736784275,3.6538941860198975,0
0.2401416188499572,3.657255172729492,0
0.2325723354901721,3.659928560256958,0
0.235258210230741,3.662599802017212,0
0.2462458796239774,3.6656322479248047,0
0.2472225613478207,3.668305158615112,0
0.235258210230741,3.670978307723999,0
0.2413624710047612,3.6737232208251953,0
0.2372115736784275,3.676679611206055,0
0.2384324258332315,3.679365873336792,0
0.2555243560004883,3.6820590496063232,0
0.2547918447076058,3.684759140014648,0
0.2450250274691734,3.687764406204224,0
0.2547918447076058,3.690441608428955,0
0.2496642656574288,3.693153142929077,0
0.249420095226468,3.695886611938477,0
0.2599194237577829,3.698826313018799,0
0.2606519350506653,3.701502561569214,0
0.2481992430716639,3.704252004623413,0
0.2530826516908802,3.7071921825408936,0
0.2477109022097423,3.7098817825317374,0
0.2499084360883896,3.712599992752075,0
0.2633378097912342,3.71530556678772,0
0.2633378097912342,3.7182483673095694,0
0.2503967769503112,3.7209584712982178,0
0.2562568672933707,3.723678827285767,0
0.2528384812599193,3.7263548374176025,0
0.2506409473812721,3.7293314933776855,0
0.2599194237577829,3.732000350952149,0
0.2601635941887437,3.734782695770264,0
0.2479550726407031,3.737501859664917,0
0.2528384812599193,3.740444660186768,0
0.2467342204858991,3.7431561946868896,0
0.2469783909168599,3.745870590209961,0
0.2577218898791356,3.748812675476074,0
0.2586985716029788,3.751525402069092,0
0.2464900500549383,3.7543225288391113,0
0.2521059699670369,3.756983518600464,0
0.2484434135026247,3.759966135025024,0
0.2491759247955072,3.762645721435547,0
0.2638261506531558,3.765349388122559,0
0.2628494689293126,3.768057823181152,0
0.249420095226468,3.771015167236328,0
0.2586985716029788,3.773723840713501,0
0.2543035038456842,3.7764370441436768,0
0.2538151629837626,3.7791051864624015,0
0.2640703210841166,3.782050609588623,0
0.2638261506531558,3.7847900390625,0
0.2518617995360761,3.7874581813812256,0
0.2557685264314491,3.790325880050659,0
0.2513734586741545,3.793137311935425,0
0.2525943108289585,3.795809030532837,0
0.2626052984983518,3.798484086990357,0
0.2621169576364301,3.801458835601807,0
0.249420095226468,3.804182767868042,0
0.253326822121841,3.806848526000977,0
0.2491759247955072,3.8095648288726807,0
0.249420095226468,3.812512397766113,0
0.259675253326822,3.8152260780334473,0
0.259675253326822,3.817931890487671,0
0.2491759247955072,3.820613145828247,0
0.2528384812599193,3.823667526245117,0
0.2479550726407031,3.826364278793335,0
0.2469783909168599,3.829033374786377,0
0.2594310828958612,3.831754207611084,0
0.259675253326822,3.834738492965698,0
0.2481992430716639,3.8374176025390634,0
0.2521059699670369,3.840122222900391,0
0.2503967769503112,3.8430988788604736,0
0.2538151629837626,3.845771551132202,0
0.2657795141008423,3.848498821258545,0
0.2665120253937247,3.851173400878906,0
0.259675253326822,3.854157447814941,0
0.2613844463435477,3.856870174407959,0
0.2562568672933707,3.859546184539795,0
0.2547918447076058,3.862214803695679,0
0.2655353436698815,3.865212917327881,0
0.2660236845318031,3.8678853511810303,0
0.2569893785862531,3.8705575466156006,0
0.2579660603100964,3.873310089111328,0
0.2552801855695275,3.876258373260498,0
0.2518617995360761,3.878928899765015,0
0.2618727872054693,3.881643056869507,0
0.2606519350506653,3.884621620178223,0
0.2521059699670369,3.8873050212860103,0
0.2543035038456842,3.889994382858277,0
0.2535709925528018,3.892664670944214,0
0.2525943108289585,3.895674228668213,0
0.2633378097912342,3.898351907730103,0
0.2608961054816261,3.901050090789795,0
0.2535709925528018,3.9037892818450928,0
0.2540593334147234,3.9067327976226807,0
0.2503967769503112,3.909404039382935,0
0.2496642656574288,3.912120342254639,0
0.2586985716029788,3.91483736038208,0
0.2586985716029788,3.917785406112671,0
0.2503967769503112,3.920498132705689,0
0.2508851178122329,3.9232139587402335,0
0.2503967769503112,3.926162004470825,0
0.2481992430716639,3.9288792610168457,0
0.2591869124649004,3.931550741195679,0
0.2569893785862531,3.934251070022583,0
0.2477109022097423,3.937241077423096,0
0.2481992430716639,3.93991494178772,0
0.2508851178122329,3.942573785781861,0
0.2462458796239774,3.9453141689300537,0
0.2540593334147234,3.9482576847076416,0
0.2530826516908802,3.9509220123291016,0
0.2467342204858991,3.953685998916626,0
0.2462458796239774,3.956354856491089,0
0.2460017091930166,3.959313154220581,0
0.244292516176291,3.962007999420166,0
0.2528384812599193,3.9647178649902335,0
0.2516176291051153,3.967542171478272,0
0.2467342204858991,3.970346450805664,0
0.2452691979001342,3.9730517864227295,0
0.2445366866072518,3.975767135620117,0
0.241606641435722,3.9787111282348633,0
0.2530826516908802,3.9813857078552246,0
0.2523501403979977,3.9841232299804688,0
0.2477109022097423,3.986807107925415,0
0.2430716640214869,3.989755153656006,0
0.2469783909168599,3.99247407913208,0
0.244292516176291,3.9952023029327393,0
0.2530826516908802,3.99786639213562,0
0.2521059699670369,4.000840663909912,0
0.2481992430716639,4.003555059432983,0
0.2430716640214869,4.006231784820557,0
0.2438041753143693,4.008946180343628,0
0.2423391527286045,4.011878967285156,0
0.2552801855695275,4.014593362808228,0
0.2560126968624099,4.017298221588135,0
0.2555243560004883,4.020237684249878,0
0.2503967769503112,4.02294397354126,0
0.2538151629837626,4.025672197341919,0
0.2503967769503112,4.028342962265015,0
0.2572335490172139,4.031308889389038,0
0.2586985716029788,4.034044504165649,0
0.2547918447076058,4.036721229553223,0
0.2479550726407031,4.039429903030396,0
0.2496642656574288,4.042388916015625,0
0.2462458796239774,4.04510235786438,0
0.2521059699670369,4.047807931900024,0
0.2518617995360761,4.05047607421875,0
0.2474667317787815,4.0536699295043945,0
0.2440483457453302,4.056398153305054,0
0.2452691979001342,4.059074878692627,0
0.2425833231595653,4.062015533447266,0
0.2557685264314491,4.064760446548462,0
0.2503967769503112,4.067427635192871,0
0.2469783909168599,4.0701000690460205,0
0.2423391527286045,4.0731165409088135,0
0.2430716640214869,4.075791835784912,0
0.2430716640214869,4.078465938568115,0
0.2547918447076058,4.081178665161133,0
0.2582102307410572,4.084153175354004,0
0.2557685264314491,4.086829900741577,0
0.2499084360883896,4.089548349380493,0
0.2523501403979977,4.092216730117798,0
0.2481992430716639,4.095194339752197,0
0.2557685264314491,4.097907543182373,0
0.2547918447076058,4.1005699634552,0
0.2508851178122329,4.103555917739868,0
0.2450250274691734,4.106236219406128,0
0.2472225613478207,4.108908414840698,0
0.2433158344524477,4.111606597900391,0
0.2518617995360761,4.114603996276856,0
0.2547918447076058,4.117275953292847,0
0.2503967769503112,4.119990348815918,0
0.2425833231595653,4.122663021087647,0
0.2481992430716639,4.125667333602905,0
0.2457575387620558,4.128389358520508,0
0.2511292882431937,4.131061553955078,0
0.2528384812599193,4.133768558502197,0
0.2491759247955072,4.136767387390137,0
0.2423391527286045,4.139446973800659,0
0.2462458796239774,4.142124176025391,0
0.2420949822976437,4.145136594772339,0
0.2499084360883896,4.1478259563446045,0
0.2508851178122329,4.150489568710327,0
0.2484434135026247,4.15323805809021,0
0.2391649371261139,4.1561830043792725,0
0.2430716640214869,4.158861398696899,0
0.2398974484189964,4.16156816482544,0
0.2472225613478207,4.164375066757202,0
0.2530826516908802,4.167335748672485,0
0.2481992430716639,4.170034170150757,0
0.2423391527286045,4.172704696655273,0
0.2508851178122329,4.175441265106201,0
0.2467342204858991,4.178398132324219,0
0.2511292882431937,4.181071758270264,0
0.2528384812599193,4.18380880355835,0
0.2481992430716639,4.186747312545776,0
0.240385789280918,4.189422369003296,0
0.2460017091930166,4.192142486572266,0
0.2406299597118788,4.194851160049439,0
0.2440483457453302,4.197802543640137,0
0.2462458796239774,4.2005157470703125,0
0.2450250274691734,4.203235864639282,0
0.2355023806617018,4.20590353012085,0
0.2411183005738004,4.208904504776001,0
0.2401416188499572,4.211589336395264,0
0.2462458796239774,4.214306592941284,0
0.2474667317787815,4.217024803161621,0
0.2484434135026247,4.219982624053955,0
0.2396532779880356,4.222660064697266,0
0.2445366866072518,4.225414991378784,0
0.2406299597118788,4.228093147277832,0
0.2452691979001342,4.231041431427002,0
0.2503967769503112,4.233810424804688,0
0.2440483457453302,4.236486673355103,0
0.2340373580759369,4.23946475982666,0
0.2396532779880356,4.242142677307129,0
0.2372115736784275,4.244844913482666,0
0.2440483457453302,4.247555494308472,0
0.2464900500549383,4.250504493713379,0
0.245513368331095,4.253260374069214,0
0.2362348919545842,4.255973100662232,0
0.2440483457453302,4.258652448654175,0
0.2394091075570747,4.2616002559661865,0
0.2452691979001342,4.26442289352417,0
0.2481992430716639,4.267093896865845,0
0.2464900500549383,4.269765377044678,0
0.2362348919545842,4.272734880447388,0
0.2408741301428396,4.275439023971558,0
0.2374557441093883,4.278107404708862,0
0.2411183005738004,4.281092882156372,0
0.2450250274691734,4.28380298614502,0
0.244292516176291,4.286474943161011,0
0.2350140397997802,4.289173126220703,0
0.2413624710047612,4.292119264602661,0
0.2369674032474666,4.2948267459869385,0
0.2413624710047612,4.297536849975586,0
0.2481992430716639,4.30020546913147,0
0.2379440849713099,4.3039939403533936,0
0.236479062385545,4.306664943695068,0
0.236479062385545,4.309337139129639,0
0.2328165059211329,4.312052011489868,0
0.2411183005738004,4.314758539199829,0
0.2413624710047612,4.31742262840271,0
0.2401416188499572,4.320140838623047,0
0.2330606763520937,4.322834253311157,0
0.2384324258332315,4.325521945953369,0
0.2335490172140153,4.328239440917969,0
0.2384324258332315,4.330909013748169,0
0.2430716640214869,4.333617687225342,0
0.2413624710047612,4.336336851119995,0
0.2289097790257599,4.339003324508667,0
0.2391649371261139,4.3416783809661865,0
0.2335490172140153,4.344423055648804,0
0.2374557441093883,4.347095251083374,0
0.2469783909168599,4.349767684936523,0
0.2472225613478207,4.352484464645386,0
0.2335490172140153,4.35521388053894,0
0.2420949822976437,4.357886552810669,0
0.2347698693688193,4.360587596893311,0
0.2355023806617018,4.3632988929748535,0
0.2469783909168599,4.365971803665161,0
0.2472225613478207,4.368687152862549,0
0.2374557441093883,4.371356010437012,0
0.2425833231595653,4.374061584472656,0
0.2398974484189964,4.37677812576294,0
0.2333048467830545,4.379446506500244,0
0.2413624710047612,4.382114410400391,0
0.241606641435722,4.384858369827271,0
0.2328165059211329,4.3875250816345215,0
0.2345256989378585,4.3901989459991455,0
0.2355023806617018,4.392937183380127,0
0.2298864607496031,4.395616292953491,0
0.2369674032474666,4.398283243179321,0
0.2359907215236234,4.400994539260864,0
0.2306189720424856,4.403700590133667,0
0.226223904285191,4.406379699707031,0
0.2323281650592112,4.409093618392944,0
0.2303748016115248,4.411772012710571,0
0.2396532779880356,4.414492845535278,0
0.2440483457453302,4.417200565338135,0
0.2425833231595653,4.419865369796753,0
0.2325723354901721,4.42253851890564,0
0.2394091075570747,4.425276041030884,0
0.2379440849713099,4.427955627441406,0
0.2484434135026247,4.4306275844573975,0
0.2543035038456842,4.433377027511597,0
0.2582102307410572,4.4360411167144775,0
0.2450250274691734,4.438722610473633,0
0.2530826516908802,4.441469669342041,0
0.2452691979001342,4.444265127182007,0
0.2362348919545842,4.446935176849365,0
0.240385789280918,4.44965124130249,0
0.2374557441093883,4.4523138999938965,0
0.227444756439995,4.455029249191284,0
0.2345256989378585,4.457738399505615,0
0.2296422903186423,4.460413694381714,0
0.2296422903186423,4.463115453720093,0
0.2406299597118788,4.465863227844238,0
0.240385789280918,4.46854043006897,0
0.2303748016115248,4.471213579177856,0
0.2342815285068977,4.4739720821380615,0
0.2323281650592112,4.476653099060059,0
0.2340373580759369,4.479351282119751,0
0.2496642656574288,4.482046842575073,0
0.2491759247955072,4.484755277633667,0
0.2438041753143693,4.487469673156738,0
0.2438041753143693,4.490146636962891,0
0.2452691979001342,4.492853879928589,0
0.2452691979001342,4.495569467544556,0
0.2579660603100964,4.498241424560547,0
0.2577218898791356,4.500913619995117,0
0.2599194237577829,4.503736972808838,0
0.2547918447076058,4.506407022476196,0
0.262361128067391,4.509071588516235,0
0.2572335490172139,4.511781215667725,0
0.2626052984983518,4.514480352401733,0
0.2648028323769991,4.517145395278931,0
0.2633378097912342,4.519858598709106,0
0.2501526065193504,4.522512435913086,0
0.2569893785862531,4.525213479995728,0
0.2516176291051153,4.527929782867432,0
0.2540593334147234,4.530604124069214,0
0.2630936393602734,4.533308744430542,0
0.2626052984983518,4.536012649536133,0
0.2508851178122329,4.538676738739014,0
0.2569893785862531,4.5413336753845215,4
0.2489317543645464,4.544077157974243,4
0.2479550726407031,4.546759605407715,4
0.253326822121841,4.54941987991333,4
0.2535709925528018,4.552124261856079,4
0.2479550726407031,4.554826021194458,4
0.2543035038456842,4.557488441467285,4
0.2484434135026247,4.560195207595825,4
0.253326822121841,4.562892913818359,4
0.2694420705652545,4.565563201904297,4
0.2682212184104504,4.568262815475464,4
0.2640703210841166,4.570936679840088,4
0.2662678549627639,4.573634624481201,4
0.2638261506531558,4.576342105865479,4
0.2696862409962153,4.579012870788574,4
0.2882431937492369,4.581678628921509,4
0.2882431937492369,4.584420680999756,4
0.2970333292638261,4.587087392807007,4
0.2938591136613355,4.589759588241577,4
0.295812477109022,4.592469930648804,4
0.2889757050421193,4.595200777053833,4
0.2909290684898058,4.597904682159424,4
0.2931266023684531,4.600616216659546,4
0.2921499206446099,4.603312730789185,4
0.2811622512513734,4.605981826782227,4
0.2799413990965693,4.608691930770874,4
0.272616286167745,4.611362218856812,4
0.271395434012941,4.614062547683716,4
0.2762788426321572,4.6167755126953125,4
0.2711512635819801,4.619441270828247,4
0.2601635941887437,4.622107744216919,4
0.2735929678915882,4.624843597412109,4
0.2684653888414112,4.627537250518799,4
0.2706629227200585,4.63020658493042,4
0.2787205469417653,4.632967710494995,4
0.2753021609083139,4.635636806488037,4
0.2652911732389207,4.638307809829712,4
0.2740813087535099,4.6410181522369385,4
0.2704187522890977,4.643724918365479,4
0.2633378097912342,4.64639139175415,4
0.2655353436698815,4.649102210998535,4
0.2626052984983518,4.651758670806885,4
0.2555243560004883,4.654460906982422,4
0.2577218898791356,4.657172441482544,4
0.2608961054816261,4.659844875335693,4
0.2540593334147234,4.662503242492676,4
0.2589427420339396,4.665263175964356,4
0.2574777194481747,4.6679322719573975,4
0.254547674276645,4.670599222183228,4
0.2540593334147234,4.673340797424316,4
0.2562568672933707,4.6760125160217285,4
0.2474667317787815,4.678679704666138,4
0.2462458796239774,4.6813929080963135,4
0.2472225613478207,4.684093236923218,4
0.2447808570382126,4.686758995056152,4
0.2345256989378585,4.689469337463379,4
0.2430716640214869,4.692139625549316,4
0.2386765962641923,4.694921255111694,4
0.2411183005738004,4.697635173797607,4
0.2433158344524477,4.700301170349121,4
0.2425833231595653,4.703009843826294,4
0.2296422903186423,4.705719947814941,4
0.2359907215236234,4.708386421203613,4
0.2345256989378585,4.711053371429443,4
0.2450250274691734,4.713831186294556,4
0.2540593334147234,4.716493844985962,4
0.2618727872054693,4.719179630279541,4
0.2518617995360761,4.721890211105347,4
0.2589427420339396,4.724596977233887,4
0.2525943108289585,4.727272987365723,4
0.2586985716029788,4.730003118515015,4
0.2591869124649004,4.732665300369263,4
0.2684653888414112,4.735388994216919,4
0.2594310828958612,4.738081693649292,4
0.2628494689293126,4.740750074386597,4
0.2582102307410572,4.743481159210205,4
0.2560126968624099,4.746158123016357,4
0.2672445366866072,4.7488203048706055,4
0.2660236845318031,4.7515199184417725,4
0.2560126968624099,4.754215240478516,4
0.2543035038456842,4.756884336471558,4
0.2511292882431937,4.759597063064575,4
0.2386765962641923,4.7622692584991455,4
0.2452691979001342,4.764971256256104,4
0.2469783909168599,4.767689943313599,4
0.253326822121841,4.770354986190796,4
0.2462458796239774,4.773124694824219,4
0.2513734586741545,4.775832414627075,4
0.2481992430716639,4.778503894805908,4
0.2562568672933707,4.78117823600769,4
0.2611402759125869,4.783923625946045,4
0.2616286167745085,4.786586046218872,4
0.2518617995360761,4.789258718490601,4
0.245513368331095,4.791971445083618,4
0.2381882554022707,4.79468297958374,4
0.2289097790257599,4.79734992980957,4
0.2296422903186423,4.800063133239746,4
0.2247588816994261,4.802731990814209,4
0.2127945305823464,4.805437803268433,4
0.2276889268709558,4.80814266204834,4
0.221096325235014,4.810810089111328,4
0.2208521548040531,4.813506364822388,4
0.2347698693688193,4.816218614578247,4
0.2325723354901721,4.818889379501343,4
0.2289097790257599,4.821563482284546,4
0.2362348919545842,4.824299335479736,4
0.2433158344524477,4.826976776123047,4
0.2394091075570747,4.829653978347778,4
0.2481992430716639,4.832378149032593,4
0.2491759247955072,4.835107326507568,4
0.2423391527286045,4.8377768993377686,4
0.2430716640214869,4.840484857559204,4
0.2423391527286045,4.843183517456055,4
0.2340373580759369,4.845861673355103,4
0.2362348919545842,4.848582029342651,4
0.2379440849713099,4.8512609004974365,4
0.2394091075570747,4.853966474533081,4
0.2347698693688193,4.85667896270752,4
0.2355023806617018,4.859351634979248,4
0.2284214381638383,4.86202335357666,4
0.2264680747161518,4.8647661209106445,4
0.2279330973019167,4.8674397468566895,4
0.2257355634232694,4.870110511779785,4
0.2188987913563667,4.872839689254761,4
0.2286656085947991,4.875509262084961,4
0.227444756439995,4.87817907333374,4
0.2372115736784275,4.88088846206665,4
0.2411183005738004,4.883591413497925,4
0.2503967769503112,4.886258363723755,4
0.2374557441093883,4.888965845108032,4
0.2506409473812721,4.89163613319397,4
0.2423391527286045,4.894338607788086,4
0.2406299597118788,4.897055864334106,4
0.2555243560004883,4.899723768234253,4
0.2496642656574288,4.902403831481934,4
0.2501526065193504,4.905136823654175,4
0.2433158344524477,4.907806634902954,4
0.240385789280918,4.910479784011841,4
0.231351483335368,4.9132399559021,4
0.2254913929923085,4.915913820266724,4
0.2272005860090342,4.918587684631348,4
0.2206079843730923,4.921293497085571,4
0.2284214381638383,4.923998594284058,4
0.2296422903186423,4.92667818069458,4
0.221096325235014,4.929401636123657,4
0.2140153827371504,4.93207859992981,4
0.2123061897204248,4.93479585647583,4
0.2091319741179342,4.9375104904174805,4
0.208155292394091,4.940207004547119,4
0.2186546209254058,4.942920207977295,4
0.2257355634232694,4.945639133453369,4
0.2479550726407031,4.948316812515259,4
0.2530826516908802,4.950987100601196,4
0.2491759247955072,4.953749895095825,4
0.2435600048834085,4.95642876625061,4
0.2489317543645464,4.959100484848023,4
0.2604077646197045,4.961812734603882,4
0.276523013063118,4.96451210975647,4
0.2811622512513734,4.967180013656616,4
0.3077768282261017,4.969889402389526,4
0.2989866927115125,4.972559213638306,4
0.3043584421926504,4.975274324417114,4
0.294591624954218,4.977990627288818,4
0.2843364668538639,4.980665445327759,4
0.2848248077157855,4.983389854431152,4
0.2770113539250396,4.986087322235107,4
0.2645586619460383,4.988755941390991,4
0.2850689781467463,4.991464853286743,4
0.2794530582346477,4.994165897369385,4
0.2745696496154315,4.996835708618164,4
0.2860456598705896,4.9995434284210205,4
0.2838481259919423,5.002210855484009,4
0.2704187522890977,5.004915714263916,4
0.2767671834940788,5.007625341415405,4
0.2716396044439018,5.010298728942871,4
0.2782322060798436,5.012995719909668,4
0.2887315346111585,5.01570987701416,4
0.2879990233182761,5.01837944984436,4
0.2821389329752166,5.021053552627564,4
0.2774996947869612,5.023800849914551,4
0.2731046270296666,5.026477813720703,4
0.2672445366866072,5.029162406921387,4
0.2648028323769991,5.031887531280518,4
0.2650470028079599,5.034597396850586,4
0.2557685264314491,5.037272691726685,4
0.2501526065193504,5.039973020553589,4
0.2530826516908802,5.042644500732422,4
0.2626052984983518,5.045348882675171,4
0.2626052984983518,5.048065900802612,4
0.2655353436698815,5.050732135772705,4
0.2640703210841166,5.053440093994141,4
0.2628494689293126,5.056150197982788,4
0.2696862409962153,5.058820009231567,4
0.2626052984983518,5.061486482620239,4
0.2521059699670369,5.064224481582642,4
0.2589427420339396,5.066889047622681,4
0.2538151629837626,5.069560289382935,4
0.2445366866072518,5.072267293930054,4
0.2621169576364301,5.074994802474976,4
0.2582102307410572,5.07765793800354,4
0.2608961054816261,5.080367803573608,4
0.268709559272372,5.083066940307617,4
0.2672445366866072,5.085736036300659,4
0.2582102307410572,5.088444948196411,4
0.2611402759125869,5.091118097305298,4
0.2574777194481747,5.094038486480713,4
0.259675253326822,5.096758127212524,4
0.2882431937492369,5.099431753158569,4
0.2882431937492369,5.102102518081665,4
0.2923940910755707,5.104843854904175,4
0.3019167378830423,5.107518196105957,4
0.2967891588328653,5.11019229888916,4
0.2950799658161396,5.112938404083252,4
0.2914174093517274,5.11561131477356,4
0.2870223415944328,5.118288040161133,4
0.2811622512513734,5.120997905731201,4
0.2743254791844707,5.12370228767395,4
0.2711512635819801,5.1263720989227295,4
0.2599194237577829,5.129084348678589,4
0.259675253326822,5.131770372390747,4
0.2618727872054693,5.134474515914917,4
0.2618727872054693,5.137187719345093,4
0.2577218898791356,5.139854192733765,4
0.2606519350506653,5.14252233505249,4
0.2528384812599193,5.145259857177734,4
0.2562568672933707,5.147918939590454,4
0.2670003662556464,5.150582551956177,4
0.268709559272372,5.153321027755737,4
0.2569893785862531,5.155990362167358,4
0.2738371383225491,5.158660173416138,4
0.267488707117568,5.1613640785217285,4
0.2743254791844707,5.1640801429748535,4
0.2811622512513734,5.16675591468811,4
0.2809180808204126,5.169469594955444,4
0.2723721157367842,5.17214035987854,4
0.2694420705652545,5.174847602844238,4
0.2665120253937247,5.177557468414307,4
0.2774996947869612,5.180229425430298,4
0.2843364668538639,5.18293309211731,4
0.2914174093517274,5.185647964477539,4
0.2818947625442558,5.18831205368042,4
0.285557319008668,5.1909778118133545,4
0.2894640459040409,5.193737506866455,4
0.2794530582346477,5.19640326499939,4
0.2931266023684531,5.199075222015381,4
0.2938591136613355,5.201783180236816,4
0.2928824319374923,5.204492807388306,4
0.2914174093517274,5.207160234451294,4
0.2950799658161396,5.209875106811523,4
0.2848248077157855,5.212536811828613,4
0.2774996947869612,5.215237379074097,4
0.2755463313392747,5.217947721481323,4
0.2672445366866072,5.220617771148682,4
0.2616286167745085,5.22333574295044,4
0.2525943108289585,5.226023435592651,4
0.2452691979001342,5.228689432144165,4
0.2381882554022707,5.231438636779785,4
0.2420949822976437,5.234166145324707,4
0.2374557441093883,5.236840009689331,4
0.2296422903186423,5.239548206329346,4
0.2499084360883896,5.242227077484131,4
0.2499084360883896,5.244935512542725,4
0.2508851178122329,5.247639417648315,4
0.2606519350506653,5.250310897827148,4
0.2618727872054693,5.253014802932739,4
0.2491759247955072,5.255725860595703,4
0.2543035038456842,5.258396863937378,4
0.2462458796239774,5.261067628860474,4
0.2438041753143693,5.2638161182403564,4
0.2538151629837626,5.266775608062744,4
0.2481992430716639,5.270517826080322,4
0.2457575387620558,5.274101734161377,4
0.2518617995360761,5.276930332183838,4
0.2452691979001342,5.279744625091553,4
0.2574777194481747,5.283001899719238,4
0.2599194237577829,5.286132097244263,4
0.2474667317787815,5.288959741592407,4
0.2501526065193504,5.291663408279419,4
0.244292516176291,5.2948315143585205,4
0.2391649371261139,5.298019647598267,4
0.2440483457453302,5.300958871841431,4
0.2396532779880356,5.304180145263672,4
0.2386765962641923,5.30720853805542,4
0.2538151629837626,5.310274600982666,4
0.2518617995360761,5.313489437103272,4
0.2626052984983518,5.316532611846924,4
0.258454401172018,5.319654226303101,4
0.2472225613478207,5.322725772857666,4
0.2630936393602734,5.325689792633057,4
0.259675253326822,5.328792810440064,4
0.2594310828958612,5.3317811489105225,4
0.2611402759125869,5.3363025188446045,4
0.2528384812599193,5.3392863273620605,4
0.2565010377243315,5.3421056270599365,4
0.2499084360883896,5.345557689666748,4
0.2652911732389207,5.348747968673706,4
0.2655353436698815,5.351602077484131,4
0.2613844463435477,5.354755163192749,4
0.2655353436698815,5.357985258102417,4
0.2621169576364301,5.361066818237305,4
0.2550360151385666,5.36424994468689,4
0.2621169576364301,5.367016315460205,4
0.2538151629837626,5.370111465454102,4
0.2550360151385666,5.373610496520996,4
0.2818947625442558,5.376596927642822,4
0.2801855695275301,5.379644393920898,4
0.2933707727994139,5.38268518447876,4
0.2960566475399828,5.386239051818848,4
0.2823831034061774,5.389267206192017,4
0.2987425222805517,5.392429351806641,4
0.2931266023684531,5.395799160003662,4
0.2987425222805517,5.398867130279541,4
0.2999633744353558,5.40186071395874,4
0.2914174093517274,5.405454874038696,4
0.2933707727994139,5.40852689743042,4
0.2889757050421193,5.409966468811035,4
0.2840922964229031,5.411503791809082,4
0.2848248077157855,5.413257360458374,4
0.2909290684898058,5.414750814437866,4
0.2894640459040409,5.416378021240234,4
0.295812477109022,5.417875289916992,4
0.2953241362471004,5.419252634048462,4
0.2892198754730801,5.420858383178711,4
0.2848248077157855,5.422424077987671,4
0.285557319008668,5.424135446548462,4
0.2843364668538639,5.425516843795776,4
0.2792088878036869,5.427005290985107,4
0.2735929678915882,5.428494930267334,4
0.2660236845318031,5.430025100708008,4
0.267488707117568,5.431594133377075,4
0.2652911732389207,5.433424711227417,4
0.267488707117568,5.434991836547852,4
0.2626052984983518,5.436555862426758,4
0.2567452081552923,5.438117504119873,4
0.2594310828958612,5.439739942550659,4
0.2657795141008423,5.441314935684204,4
0.2626052984983518,5.44292426109314,4
0.2652911732389207,5.444742679595947,4
0.271395434012941,5.446178436279297,4
0.2753021609083139,5.447837829589844,4
0.2774996947869612,5.449442386627197,4
0.2748138200463923,5.450879812240601,4
0.2794530582346477,5.452393293380737,4
0.2794530582346477,5.454118013381958,4
0.2811622512513734,5.455684423446655,4
0.2850689781467463,5.457258462905884,4
0.2877548528873153,5.458666801452637,4
0.2882431937492369,5.460041522979736,4
0.2831156146990599,5.461653232574463,4
0.2743254791844707,5.463475465774536,4
0.2809180808204126,5.464931964874268,4
0.2794530582346477,5.466295957565308,4
0.2840922964229031,5.467778205871582,4
0.2941032840922963,5.469273090362549,4
0.2872665120253936,5.470808982849121,4
0.2843364668538639,5.472390174865723,4
0.2882431937492369,5.474241018295288,4
0.2860456598705896,5.475807189941406,4
0.2831156146990599,5.477322578430176,4
0.2753021609083139,5.478867292404175,4
0.2833597851300207,5.480483293533325,4
0.3019167378830423,5.48201847076416,4
0.3019167378830423,5.483879327774048,4
0.3104627029666706,5.48545241355896,4
0.3055792943474544,5.486883401870728,4
0.295812477109022,5.4885852336883545,4
0.2977658405567085,5.490166902542114,4
0.3002075448663166,5.491588354110718,4
0.2970333292638261,5.493395566940308,4
0.2953241362471004,5.49485445022583,4
0.2965449884019044,5.496289968490601,4
0.3026492491759247,5.49763560295105,4
0.3089976803809058,5.498972892761231,4
0.3075326577951409,5.500305891036987,4
0.308753509949945,5.501640558242798,4
0.304846783054572,5.503178358078003,4
0.3019167378830423,5.504539251327515,4
0.3006958857282382,5.5058753490448,4
0.3041142717616896,5.507214784622192,4
0.3026492491759247,5.50855016708374,4
0.2989866927115125,5.510225057601929,4
0.2982541814186301,5.513247728347778,4
0.3011842265901598,5.515929460525513,4
0.3011842265901598,5.518592834472656,4
0.2970333292638261,5.521296739578247,4
0.2933707727994139,5.5242838859558105,4
0.2894640459040409,5.526962041854858,4
0.299719204004395,5.529672384262085,4
0.3234037358075936,5.532351970672607,4
0.3243804175314368,5.535383939743042,4
0.3221828836527896,5.538081645965576,4
0.317787815895495,5.540755748748779,4
0.3172994750335733,5.543839454650879,4
0.3055792943474544,5.546516180038452,4
0.3055792943474544,5.549192667007446,4
0.3026492491759247,5.55190110206604,4
0.2928824319374923,5.554927349090576,4
0.2901965571969234,5.557599067687988,4
0.282871444268099,5.560307264328003,4
0.2789647173727261,5.563295125961304,4
0.294591624954218,5.565976619720459,4
0.2921499206446099,5.568695068359375,4
0.2899523867659626,5.571407318115234,4
0.2843364668538639,5.57440185546875,4
0.2831156146990599,5.577117204666138,4
0.281650592113295,5.579784154891968,4
0.2879990233182761,5.582457304000855,4
0.2872665120253936,5.58547830581665,4
0.2809180808204126,5.588163137435913,4
0.277743865217922,5.590831518173218,4
0.276523013063118,5.5938591957092285,4
0.2753021609083139,5.596539497375488,4
0.286778171163472,5.599213361740112,4
0.285557319008668,5.6019206047058105,4
0.2757905017702355,5.604903936386108,4
0.2784763765108045,5.6076085567474365,4
0.2753021609083139,5.610285043716431,4
0.2757905017702355,5.613250494003296,4
0.2716396044439018,5.615970134735107,4
0.2696862409962153,5.618635177612305,4
0.2579660603100964,5.6213037967681885,4
0.2560126968624099,5.62429404258728,4
0.2599194237577829,5.626975059509277,4
0.2582102307410572,5.629638195037842,4
0.2630936393602734,5.63235330581665,4
0.2640703210841166,5.635391712188721,4
0.2613844463435477,5.638074159622192,4
0.2628494689293126,5.640788555145264,4
0.2638261506531558,5.643505334854126,4
0.263581980222195,5.646456718444824,4
0.2677328775485288,5.649165153503418,4
0.2652911732389207,5.651836633682251,4
0.2586985716029788,5.654545783996582,4
0.2521059699670369,5.657523155212402,4
0.2481992430716639,5.660198211669922,4
0.2440483457453302,5.662923097610474,4
0.2508851178122329,5.665910005569458,4
0.2516176291051153,5.668585300445557,4
0.2462458796239774,5.671263217926025,4
0.2450250274691734,5.674032926559448,4
0.2506409473812721,5.676981687545776,4
0.2489317543645464,5.679698705673218,4
0.2496642656574288,5.682377576828003,4
0.2467342204858991,5.685074090957642,4
0.2445366866072518,5.68806529045105,4
0.2408741301428396,5.690733194351196,4
0.2418508118666829,5.693442583084106,4
0.2381882554022707,5.696154356002808,4
0.2518617995360761,5.699092626571655,4
0.2523501403979977,5.701768159866333,4
0.2511292882431937,5.704505205154419,4
0.2469783909168599,5.707454442977905,4
0.2601635941887437,5.710138559341431,4
0.2618727872054693,5.712886333465576,4
0.272616286167745,5.715557098388672,4
0.2731046270296666,5.7185022830963135,4
0.268709559272372,5.72121787071228,4
0.2660236845318031,5.723929405212402,4
0.2630936393602734,5.726600408554077,4
0.2530826516908802,5.729576826095581,4
0.2528384812599193,5.732257127761841,4
0.2523501403979977,5.7350828647613525,4
0.2503967769503112,5.737809419631958,4
0.2462458796239774,5.740763902664185,4
0.2462458796239774,5.743550539016724,4
0.2425833231595653,5.746229648590088,4
0.2538151629837626,5.749169826507568,4
0.2547918447076058,5.751884937286377,4
0.2547918447076058,5.75459623336792,4
0.2530826516908802,5.757260799407959,4
0.2535709925528018,5.760242938995361,4
0.2589427420339396,5.7629454135894775,4
0.272616286167745,5.765620470046997,4
0.2718837748748626,5.768326282501221,4
0.2753021609083139,5.771271705627441,4
0.271395434012941,5.773981332778931,4
0.2757905017702355,5.776695251464844,4
0.2706629227200585,5.779357433319092,4
0.2767671834940788,5.782320022583008,4
0.2770113539250396,5.785070657730103,4
0.272616286167745,5.787745237350464,4
0.2655353436698815,5.790694713592529,4
0.2682212184104504,5.793530464172363,4
0.2621169576364301,5.796197891235352,4
0.2665120253937247,5.798862934112549,4
0.2684653888414112,5.80184531211853,4
0.2633378097912342,5.804555654525757,4
0.2577218898791356,5.807222843170166,4
0.2589427420339396,5.809930801391602,4
0.2538151629837626,5.812909841537476,4
0.2574777194481747,5.815625429153442,4
0.2569893785862531,5.8182899951934814,4
0.2496642656574288,5.821245670318604,4
0.2430716640214869,5.823995351791382,4
0.2501526065193504,5.826663970947266,4
0.2481992430716639,5.8293328285217285,4
0.2547918447076058,5.832299709320068,4
0.2557685264314491,5.835026025772095,4
0.2521059699670369,5.837706565856934,4
0.2440483457453302,5.840428113937378,4
0.2452691979001342,5.843420743942261,4
0.2386765962641923,5.846092700958252,4
0.2372115736784275,5.848802089691162,4
0.2398974484189964,5.851474761962891,4
0.2340373580759369,5.854463577270508,4
0.2267122451471126,5.857173681259155,4
0.2347698693688193,5.859846830368042,4
0.2281772677328775,5.862819910049439,4
0.2457575387620558,5.86553955078125,4
0.2538151629837626,5.868218660354614,4
0.2667561958246855,5.870885372161865,4
0.2569893785862531,5.873898983001709,4
0.2613844463435477,5.876582145690918,4
0.2560126968624099,5.879250764846802,4
0.2582102307410572,5.88195538520813,4
0.2608961054816261,5.884929418563843,4
0.259675253326822,5.887640476226807,4
0.2481992430716639,5.89030909538269,4
0.2538151629837626,5.893016576766968,4
0.2489317543645464,5.8960065841674805,4
0.2530826516908802,5.898680210113525,4
0.2577218898791356,5.901347637176514,4
0.2572335490172139,5.904283046722412,4
0.2462458796239774,5.907026767730713,4
0.2521059699670369,5.909693956375122,4
0.2496642656574288,5.912403583526611,4
0.2582102307410572,5.9154112339019775,4
0.2648028323769991,5.918084144592285,4
0.2645586619460383,5.920795679092407,4
0.2535709925528018,5.923547983169556,4
0.2672445366866072,5.926501512527466,4
0.2626052984983518,5.92921781539917,4
0.2638261506531558,5.931885957717896,4
0.2667561958246855,5.9345862865448,4
0.262361128067391,5.937590599060059,4
0.2516176291051153,5.940263748168945,4
0.2574777194481747,5.942969083786011,4
0.2518617995360761,5.945672273635864,4
0.2555243560004883,5.948619842529297,4
0.2616286167745085,5.95130729675293,4
0.2557685264314491,5.95403528213501,4
0.2430716640214869,5.956982851028442,4
0.2538151629837626,5.959696531295776,4
0.2479550726407031,5.9623777866363525,4
0.2489317543645464,5.965088844299316,4
0.2552801855695275,5.968063116073608,4
0.2550360151385666,5.970739126205444,4
0.2430716640214869,5.973443984985352,4
0.2499084360883896,5.9761598110198975,4
0.2438041753143693,5.979871273040772,4
0.2538151629837626,5.98254132270813,4
0.2538151629837626,5.985289573669434,4
0.2491759247955072,5.9879677295684814,4
0.2418508118666829,5.990638256072998,4
0.2457575387620558,5.993391513824463,4
0.2413624710047612,5.996056795120239,4
0.2496642656574288,5.998732566833496,4
0.2560126968624099,6.001459121704102,4
0.2560126968624099,6.004162549972534,4
0.2445366866072518,6.006831884384155,4
0.2528384812599193,6.009541034698486,4
0.2450250274691734,6.012213945388794,4
0.2469783909168599,6.014925479888916,4
0.2574777194481747,6.01763916015625,4
0.2562568672933707,6.020306587219238,4
0.2425833231595653,6.023008823394775,4
0.2511292882431937,6.025714159011841,4
0.2438041753143693,6.02838659286499,4
0.2418508118666829,6.031061887741089,0
0.2503967769503112,6.033814668655396,0
0.2503967769503112,6.036489248275757,0
0.2425833231595653,6.039171457290649,0
0.2462458796239774,6.0418853759765625,0
0.2398974484189964,6.0445990562438965,0
0.2311073129044072,6.047293424606323,0
0.2379440849713099,6.049989223480225,0
0.2374557441093883,6.052659749984741,0
0.2284214381638383,6.055383920669556,0
0.2306189720424856,6.058078289031982,0
0.2289097790257599,6.060749053955078,0
0.2276889268709558,6.063495397567749,0
0.2384324258332315,6.066164970397949,0
0.2372115736784275,6.068838357925415,0
0.2320839946282504,6.07154393196106,0
0.2264680747161518,6.074251651763916,0
0.2289097790257599,6.076926946640015,0
0.227444756439995,6.079644203186035,0
0.235258210230741,6.082312107086182,0
0.236479062385545,6.085014343261719,0
0.2337931876449761,6.0877227783203125,0
0.2237821999755829,6.090399980545044,0
0.2325723354901721,6.093103647232056,0
0.2281772677328775,6.095824718475342,0
0.2323281650592112,6.098496675491333,0
0.2391649371261139,6.101171493530273,0
0.2386765962641923,6.103906631469727,0
0.2257355634232694,6.106570482254028,0
0.2345256989378585,6.109235048294067,0
0.2276889268709558,6.111945629119873,0
0.2286656085947991,6.114648580551148,0
0.2394091075570747,6.117321491241455,0
0.2401416188499572,6.120035171508789,0
0.226223904285191,6.122711896896362,0
0.2347698693688193,6.125404119491577,0
0.2284214381638383,6.128114223480225,0
0.2301306311805639,6.130781650543213,0
0.2408741301428396,6.133699655532837,0
0.2413624710047612,6.136419773101807,0
0.2291539494567207,6.139094352722168,0
0.2335490172140153,6.141761302947998,0
0.2301306311805639,6.14452075958252,0
0.2289097790257599,6.147191286087036,0
0.2372115736784275,6.149863004684448,0
0.236479062385545,6.152569770812988,0
0.2276889268709558,6.155295848846436,0
0.2281772677328775,6.157967805862427,0
0.2293981198876815,6.160686254501343,0
0.2284214381638383,6.163403749465942,0
0.2440483457453302,6.166081666946411,0
0.245513368331095,6.168797016143799,0
0.2433158344524477,6.171474933624268,0
0.2374557441093883,6.174180030822754,0
0.2418508118666829,6.176898956298828,0
0.2381882554022707,6.179570913314819,0
0.2440483457453302,6.182248830795288,0
0.2477109022097423,6.184991359710693,0
0.2460017091930166,6.187667846679688,0
0.2340373580759369,6.1903369426727295,0
0.2420949822976437,6.193080425262451,0
0.2374557441093883,6.195752382278442,0
0.2394091075570747,6.198432445526123,0
0.2467342204858991,6.201143026351929,0
0.2467342204858991,6.20385217666626,0
0.2335490172140153,6.206524133682251,0
0.2418508118666829,6.209246397018433,0
0.2350140397997802,6.211921453475952,0
0.2359907215236234,6.214633226394653,0
0.2460017091930166,6.217349052429199,0
0.2462458796239774,6.220029592514038,0
0.2340373580759369,6.2226996421813965,0
0.2406299597118788,6.225436210632324,0
0.235258210230741,6.22809910774231,0
0.2355023806617018,6.230776786804199,0
0.2462458796239774,6.233526229858398,0
0.2467342204858991,6.236199378967285,0
0.2374557441093883,6.2388763427734375,0
0.2396532779880356,6.241597652435303,0
0.2381882554022707,6.244311332702637,0
0.235258210230741,6.246984720230103,0
0.2452691979001342,6.249696493148804,0
0.2440483457453302,6.252373695373535,0
0.2389207666951531,6.25507378578186,0
0.2355023806617018,6.257806777954102,0
0.2367232328165058,6.260478019714356,0
0.2333048467830545,6.26319146156311,0
0.240385789280918,6.265902996063232,0
0.2413624710047612,6.268610954284668,0
0.2394091075570747,6.271296739578247,0
0.2308631424734464,6.274046182632446,0
0.236479062385545,6.276715755462647,0
0.2325723354901721,6.27942419052124,0
0.2372115736784275,6.2820963859558105,0
0.2425833231595653,6.284799575805664,0
0.2433158344524477,6.287504196166992,0
0.2303748016115248,6.290183782577515,0
0.2411183005738004,6.292887210845947,0
0.235258210230741,6.295719861984253,0
0.2362348919545842,6.298390865325928,0
0.2460017091930166,6.301071405410767,0
0.2450250274691734,6.3038859367370605,0
0.2306189720424856,6.306563138961792,0
0.240385789280918,6.309230804443359,0
0.2340373580759369,6.311944961547852,0
0.2355023806617018,6.314651966094971,0
0.2452691979001342,6.317315340042114,0
0.2462458796239774,6.320026874542236,0
0.2335490172140153,6.3227012157440186,0
0.2413624710047612,6.32541036605835,0
0.2359907215236234,6.3281214237213135,0
0.2359907215236234,6.330790042877197,0
0.2469783909168599,6.333509206771851,0
0.2460017091930166,6.336223125457764,0
0.2367232328165058,6.338908910751343,0
0.2384324258332315,6.341586828231812,0
0.2367232328165058,6.344351530075073,0
0.2350140397997802,6.347023725509644,0
0.2440483457453302,6.349701404571533,0
0.2428274935905261,6.352414846420288,0
0.2369674032474666,6.355211496353149,0
0.2345256989378585,6.357887268066406,0
0.2359907215236234,6.360604286193848,0
0.2325723354901721,6.363307952880859,0
0.2398974484189964,6.365982055664063,0
0.240385789280918,6.368692636489868,0
0.2367232328165058,6.371362447738648,0
0.2291539494567207,6.374061822891235,0
0.2345256989378585,6.37677526473999,0
0.2306189720424856,6.379438877105713,0
0.2347698693688193,6.38210916519165,0
0.2401416188499572,6.384856224060059,0
0.2394091075570747,6.387527227401733,0
0.2267122451471126,6.390193939208984,0
0.2367232328165058,6.392955303192139,0
0.231351483335368,6.395631074905396,0
0.2325723354901721,6.398305654525757,0
0.2425833231595653,6.401017427444458,0
0.2430716640214869,6.403717756271362,0
0.2298864607496031,6.406384944915772,0
0.2381882554022707,6.409100294113159,0
0.2315956537663288,6.411765098571777,0
0.2333048467830545,6.41448712348938,0
0.2425833231595653,6.4171974658966064,0
0.2430716640214869,6.41986894607544,0
0.2311073129044072,6.422537565231323,0
0.2359907215236234,6.425276041030884,0
0.2325723354901721,6.427944183349609,0
0.2308631424734464,6.43061375617981,0
0.2420949822976437,6.433358907699585,0
0.2420949822976437,6.436035394668579,0
0.2355023806617018,6.438715696334839,0
0.2345256989378585,6.441426992416382,0
0.235258210230741,6.44413948059082,0
0.2328165059211329,6.446813106536865,0
0.2413624710047612,6.449533224105835,0
0.2411183005738004,6.45221209526062,0
0.2374557441093883,6.454913139343262,0
0.2308631424734464,6.457674503326416,0
0.2342815285068977,6.460433006286621,0
0.231351483335368,6.463150978088379,0
0.2379440849713099,6.4658637046813965,0
0.2401416188499572,6.468541622161865,0
0.2386765962641923,6.471213102340698,0
0.2281772677328775,6.473957538604736,0
0.2350140397997802,6.476622581481934,0
0.2306189720424856,6.479307413101196,0
0.2342815285068977,6.481997728347778,0
0.2423391527286045,6.48469877243042,0
0.2438041753143693,6.487411975860596,0
0.2301306311805639,6.490092039108276,0
0.2411183005738004,6.492790699005127,0
0.2347698693688193,6.495506763458252,0
0.2374557441093883,6.498180627822876,0
0.2496642656574288,6.500865459442139,0
0.2508851178122329,6.503691911697388,0
0.2381882554022707,6.506378889083862,0
0.2445366866072518,6.5090532302856445,0
0.2381882554022707,6.511792898178101,0
0.2386765962641923,6.514512300491333,0
0.2479550726407031,6.51718544960022,0
0.2491759247955072,6.519905090332031,0
0.2372115736784275,6.522578716278076,0
0.2413624710047612,6.5252790451049805,0
0.2391649371261139,6.527994394302368,0
0.2367232328165058,6.530665397644043,0
0.2464900500549383,6.533373355865479,0
0.245513368331095,6.5360870361328125,0
0.2381882554022707,6.538766384124756,0
0.2367232328165058,6.541438102722168,0
0.2369674032474666,6.544193267822266,0
0.2342815285068977,6.546866178512573,0
0.241606641435722,6.549537420272827,0
0.2423391527286045,6.5522520542144775,0
0.2391649371261139,6.554960012435913,0
0.231351483335368,6.557623386383057,0
0.2362348919545842,6.560338497161865,0
0.2325723354901721,6.563043594360352,0
0.2372115736784275,6.56571888923645,0
0.2423391527286045,6.5684309005737305,0
0.2420949822976437,6.571111440658569,0
0.2293981198876815,6.573812961578369,0
0.2374557441093883,6.57653284072876,0
0.2320839946282504,6.579200744628906,0
0.2328165059211329,6.581870317459106,0
0.2418508118666829,6.584614992141724,0
0.2433158344524477,6.587292671203613,0
0.2293981198876815,6.589962005615234,0
0.2384324258332315,6.592674493789673,0
0.2318398241972896,6.595373630523682,0
0.2367232328165058,6.598046064376831,0
0.2503967769503112,6.600754261016846,0
0.2511292882431937,6.603447675704956,0
0.2398974484189964,6.606117010116577,0
0.244292516176291,6.60882568359375,0
0.240385789280918,6.611534118652344,0
0.2389207666951531,6.614243984222412,0
0.2481992430716639,6.616950035095215,0
0.2491759247955072,6.619629621505737,0
0.2391649371261139,6.622298717498779,0
0.2406299597118788,6.625045776367188,0
0.2391649371261139,6.627714157104492,0
0.2374557441093883,6.630388021469116,0
0.2462458796239774,6.6331517696380615,0
0.2460017091930166,6.635828733444214,0
0.2394091075570747,6.63850212097168,0
0.2342815285068977,6.641246318817139,0
0.2379440849713099,6.643971920013428,0
0.2345256989378585,6.64664888381958,0
0.240385789280918,6.649359464645386,0
0.2423391527286045,6.652029275894165,0
0.2406299597118788,6.65473198890686,0
0.2303748016115248,6.657447814941406,0
0.2381882554022707,6.660118103027344,0
0.2335490172140153,6.662832975387573,0
0.236479062385545,6.665547847747803,0
0.2430716640214869,6.668221712112427,0
0.2435600048834085,6.670891761779785,0
0.2296422903186423,6.673637866973877,0
0.2391649371261139,6.676309823989868,0
0.2323281650592112,6.678983688354492,0
0.2335490172140153,6.681697845458984,0
0.2440483457453302,6.684408187866211,0
0.2447808570382126,6.6870763301849365,0
0.2320839946282504,6.689788818359375,0
0.2413624710047612,6.692460536956787,0
0.2342815285068977,6.69525671005249,0
0.2359907215236234,6.697969436645508,0
0.2452691979001342,6.70064640045166,0
0.2445366866072518,6.703372001647949,0
0.2325723354901721,6.706066131591797,0
0.2369674032474666,6.708733558654785,0
0.2335490172140153,6.711444616317749,0
0.2320839946282504,6.7141501903533936,0
0.2411183005738004,6.716821670532227,0
0.2411183005738004,6.719529390335083,0
0.2345256989378585,6.722199201583862,0
0.2345256989378585,6.72490382194519,0
0.2333048467830545,6.727620363235474,0
0.2269564155780734,6.730289697647095,0
0.2296422903186423,6.7329936027526855,0
0.2291539494567207,6.735706329345703,0
0.2254913929923085,6.738379001617432,0
0.218410450494445,6.741063594818115,0
0.2247588816994261,6.743824481964111,0
0.2215846660969356,6.746493816375732,0
0.226223904285191,6.749163866043091,0
0.2308631424734464,6.751874208450317,0
0.2296422903186423,6.754601001739502,0
0.2176779392015626,6.757269620895386,0
0.2276889268709558,6.759974002838135,0
0.2225613478207788,6.762644529342651,0
0.227444756439995,6.765350580215454,0
0.2325723354901721,6.768081188201904,0
0.2335490172140153,6.770756006240845,0
0.2208521548040531,6.77345085144043,0
0.2306189720424856,6.776160955429077,0
0.2230496886827004,6.778836250305176,0
0.2247588816994261,6.78151273727417,0
0.235258210230741,6.784257411956787,0
0.2340373580759369,6.786933183670044,0
0.2240263704065437,6.789605379104614,0
0.2301306311805639,6.792320489883423,0
0.2264680747161518,6.795028924942017,0
0.2276889268709558,6.797702789306641,0
0.2374557441093883,6.800414323806763,0
0.2372115736784275,6.80311918258667,0
0.2284214381638383,6.805791854858398,0
0.227444756439995,6.808507919311523,0
0.2247588816994261,6.8111772537231445,0
0.2203638139421315,6.813951730728149,0
0.2254913929923085,6.816671133041382,0
0.2254913929923085,6.819347620010376,0
0.2218288365278964,6.822012901306152,0
0.2186546209254058,6.824759483337402,0
0.2215846660969356,6.827432632446289,0
0.2191429617873275,6.830096244812012,0
0.2264680747161518,6.832834005355835,0
0.2289097790257599,6.835503339767456,0
0.2289097790257599,6.838170289993286,0
0.2188987913563667,6.840887546539307,0
0.2269564155780734,6.843598365783691,0
0.2225613478207788,6.846278667449951,0
0.226223904285191,6.848997354507446,0
0.2328165059211329,6.851671457290649,0
0.2328165059211329,6.8543784618377686,0
0.2196313026492491,6.85708475112915,0
0.2296422903186423,6.859752416610718,0
0.2235380295446221,6.862426042556763,0
0.2259797338542302,6.865173816680908,0
0.2355023806617018,6.867850065231323,0
0.2362348919545842,6.870531558990479,0
0.2230496886827004,6.873292207717896,0
0.2325723354901721,6.875965118408203,0
0.2257355634232694,6.878645658493042,0
0.2267122451471126,6.881357431411743,0
0.236479062385545,6.884063720703125,0
0.2367232328165058,6.886740207672119,0
0.226223904285191,6.88945746421814,0
0.2301306311805639,6.892124652862549,0
0.2284214381638383,6.894837379455566,0
0.2272005860090342,6.897550344467163,0
0.2376999145403491,6.900224924087524,0
0.2369674032474666,6.902929306030273,0
0.2301306311805639,6.905641794204712,0
0.2298864607496031,6.908321857452393,0
0.2303748016115248,6.910993576049805,0
0.2284214381638383,6.913751602172852,0
0.2381882554022707,6.916428327560425,0
0.2386765962641923,6.919102191925049,0
0.2347698693688193,6.921821355819702,0
0.2276889268709558,6.9245240688323975,0
0.2323281650592112,6.927200078964233,0
0.2293981198876815,6.929911613464356,0
0.2345256989378585,6.9325852394104,0
0.2394091075570747,6.935303688049316,0
0.2369674032474666,6.938001155853272,0
0.2242705408375045,6.94067120552063,0
0.2394091075570747,6.943440198898315,0
0.2335490172140153,6.946121692657471,0
0.235258210230741,6.948793888092041,0
0.2445366866072518,6.9515039920806885,0
0.2452691979001342,6.954246044158936,0
0.2308631424734464,6.956921339035034,0
0.2406299597118788,6.959638595581055,0
0.2333048467830545,6.962319374084473,0
0.2359907215236234,6.965024948120117,0
0.2462458796239774,6.9677414894104,0
0.2479550726407031,6.970423698425293,0
0.2345256989378585,6.9731199741363525,0
0.240385789280918,6.975836753845215,0
0.2345256989378585,6.978503465652466,0
0.2342815285068977,6.981182098388672,0
0.2452691979001342,6.983926296234131,0
0.2450250274691734,6.986605644226074,0
0.2357465510926626,6.989274978637695,0
0.2374557441093883,6.991989374160767,0
0.2362348919545842,6.9947123527526855,0
0.2340373580759369,6.997392177581787,0
0.2433158344524477,7.0001060962677,0
0.2423391527286045,7.002803087234497,0
0.236479062385545,7.005473613739014,0
0.2325723354901721,7.008187532424927,0
0.2355023806617018,7.010862350463867,0
0.2369674032474666,7.014894723892212,0
0.2543035038456842,7.017613649368286,0
0.2555243560004883,7.020287990570068,0
0.2445366866072518,7.022995948791504,0
0.2516176291051153,7.026003837585449,0
0.2479550726407031,7.028684377670288,0
0.2464900500549383,7.03137731552124,0
0.2557685264314491,7.034106254577637,0
0.2562568672933707,7.037122964859009,0
0.2433158344524477,7.039844274520874,0
0.2489317543645464,7.042531728744507,0
0.2433158344524477,7.045248746871948,0
0.244292516176291,7.04825234413147,0
0.2550360151385666,7.050924062728882,0
0.2552801855695275,7.053630828857422,0
0.2430716640214869,7.056597232818604,0
0.2469783909168599,7.059283018112183,0
0.2423391527286045,7.061958312988281,0
0.2420949822976437,7.064717531204224,0
0.2518617995360761,7.0676634311676025,0
0.2530826516908802,7.070339441299439,0
0.2411183005738004,7.073087930679321,0
0.2460017091930166,7.075763702392578,0
0.241606641435722,7.07871675491333,0
0.2420949822976437,7.081435441970825,0
0.2528384812599193,7.084142208099365,0
0.2518617995360761,7.086816787719727,0
0.2381882554022707,7.089800119400024,0
0.2452691979001342,7.092481851577759,0
0.2413624710047612,7.09519624710083,0
0.2423391527286045,7.097984552383423,0
0.2538151629837626,7.100863218307495,0
0.2538151629837626,7.103615999221802,0
0.2430716640214869,7.106288433074951,0
0.2469783909168599,7.10924243927002,0
0.2423391527286045,7.111954689025879,0
0.2420949822976437,7.114693641662598,0
0.2513734586741545,7.117366790771484,0
0.2508851178122329,7.120343208312988,0
0.2398974484189964,7.123051643371582,0
0.244292516176291,7.125733137130737,0
0.2408741301428396,7.128450155258179,0
0.2413624710047612,7.131406784057617,0
0.2503967769503112,7.134109020233154,0
0.2516176291051153,7.136828422546387,0
0.2413624710047612,7.139504194259644,0
0.2450250274691734,7.142466068267822,0
0.2408741301428396,7.145236968994141,0
0.2411183005738004,7.147917985916138,0
0.2516176291051153,7.150867223739624,0
0.2521059699670369,7.153619050979614,0
0.2406299597118788,7.156302452087402,0
0.2438041753143693,7.158979177474976,0
0.240385789280918,7.16196084022522,0
0.2381882554022707,7.164690971374512,0
0.2496642656574288,7.167402267456055,0
0.2489317543645464,7.170094013214111,0
0.2376999145403491,7.173301458358765,0
0.244292516176291,7.176034450531006,0
0.2396532779880356,7.178714036941528,0
0.2401416188499572,7.181528091430664,0
0.2506409473812721,7.184413909912109,0
0.2503967769503112,7.187090158462524,0
0.2384324258332315,7.1897618770599365,0
0.2425833231595653,7.192783117294312,0
0.2398974484189964,7.195467710494995,0
0.2394091075570747,7.198144674301148,0
0.249420095226468,7.200860977172852,0
0.2499084360883896,7.2038538455963135,0
0.2384324258332315,7.206527471542358,0
0.2438041753143693,7.209250688552856,0
0.2389207666951531,7.211928129196167,0
0.2389207666951531,7.214922666549683,0
0.2486875839335856,7.217644929885864,0
0.2491759247955072,7.22032356262207,0
0.2374557441093883,7.223026752471924,0
0.2418508118666829,7.225997447967529,0
0.2367232328165058,7.228670358657837,0
0.2359907215236234,7.231369018554687,0
0.2481992430716639,7.23438572883606,0
0.2496642656574288,7.237071514129639,0
0.2379440849713099,7.2397849559783936,0
0.2420949822976437,7.24246883392334,0
0.2386765962641923,7.24548864364624,0
0.2386765962641923,7.248217344284058,0
0.2530826516908802,7.250884532928467,0
0.2501526065193504,7.253591299057007,0
0.2389207666951531,7.256578922271728,0
0.2438041753143693,7.259255409240723,0
0.2406299597118788,7.261922597885132,0
0.2396532779880356,7.264669418334961,0
0.2496642656574288,7.267613172531128,0
0.2499084360883896,7.270293474197388,0
0.2381882554022707,7.273043155670166,0
0.2413624710047612,7.275995492935181,0
0.2379440849713099,7.278668403625488,0
0.2372115736784275,7.281409025192261,0
0.2472225613478207,7.284115791320801,0
0.2474667317787815,7.287069320678711,0
0.2367232328165058,7.289784908294678,0
0.2411183005738004,7.292470455169678,0
0.2384324258332315,7.295181751251221,0
0.236479062385545,7.298162937164307,0
0.2481992430716639,7.30083703994751,0
0.2481992430716639,7.303589105606079,0
0.2379440849713099,7.3062920570373535,0
0.2418508118666829,7.309246778488159,0
0.2376999145403491,7.311969041824341,0
0.2355023806617018,7.314685344696045,0
0.2460017091930166,7.317634582519531,0
0.2462458796239774,7.320349931716919,0
0.235258210230741,7.323127508163452,0
0.2413624710047612,7.325806140899658,0
0.2384324258332315,7.328772783279419,0
0.2391649371261139,7.331453323364258,0
0.2496642656574288,7.33416485786438,0
0.2499084360883896,7.336886167526245,0
0.2391649371261139,7.339837074279785,0
0.2430716640214869,7.342514276504517,0
0.2396532779880356,7.345278739929199,0
0.2389207666951531,7.347962379455566,0
0.2491759247955072,7.350916147232056,0
0.2489317543645464,7.353702545166016,0
0.2372115736784275,7.356384754180908,0
0.2406299597118788,7.359349489212036,0
0.2376999145403491,7.362056493759155,0
0.2391649371261139,7.364772319793701,0
0.2491759247955072,7.367491960525513,0
0.2481992430716639,7.370452404022217,0
0.2374557441093883,7.373169183731079,0
0.2423391527286045,7.375889301300049,0
0.2394091075570747,7.378569602966309,0
0.2374557441093883,7.381522178649902,0
0.2472225613478207,7.38427996635437,0
0.2474667317787815,7.38696551322937,0
0.2367232328165058,7.389643430709839,0
0.2401416188499572,7.392645597457886,0
0.2367232328165058,7.395350456237793,0
0.2376999145403491,7.398032903671265,0
0.2477109022097423,7.401016473770142,0
0.2481992430716639,7.403729677200317,0
0.2379440849713099,7.406409025192261,0
0.2418508118666829,7.409130811691284,0
0.2396532779880356,7.412079095840454,0
0.2384324258332315,7.414802074432373,0
0.2491759247955072,7.417523384094238,0
0.2491759247955072,7.420204162597656,0
0.2381882554022707,7.423185586929321,0
0.2428274935905261,7.42590594291687,0
0.2391649371261139,7.428579807281494,0
0.2386765962641923,7.431251764297485,0
0.2496642656574288,7.434270620346069,0
0.249420095226468,7.436952829360962,0
0.2406299597118788,7.439667701721191,0
0.2433158344524477,7.442612886428833,0
0.2413624710047612,7.445337772369385,0
0.240385789280918,7.448068141937256,0
0.2511292882431937,7.450739860534668,0
0.2499084360883896,7.453739643096924,0
0.2411183005738004,7.456451892852783,0
0.2452691979001342,7.459455251693726,0
0.2430716640214869,7.462229490280151,0
0.2418508118666829,7.464995384216309,0
0.2508851178122329,7.467669725418091,0
0.2525943108289585,7.470626592636108,0
0.240385789280918,7.473393201828003,0
0.2452691979001342,7.476073503494263,0
0.2411183005738004,7.479021549224853,0
0.2401416188499572,7.481744766235352,0
0.2503967769503112,7.484447956085205,0
0.2508851178122329,7.487123966217041,0
0.2398974484189964,7.490106105804443,0
0.244292516176291,7.492813110351562,0
0.240385789280918,7.49552845954895,0
0.2401416188499572,7.498209714889526,0
0.2501526065193504,7.50115180015564,0
0.2516176291051153,7.503897428512573,0
0.2398974484189964,7.506575107574463,0
0.2440483457453302,7.509258270263672,0
0.2398974484189964,7.512246608734131,0
0.2406299597118788,7.515050411224365,0
0.2521059699670369,7.517721652984619,0
0.2528384812599193,7.5207014083862305,0
0.2411183005738004,7.523420572280884,0
0.2464900500549383,7.526090145111084,0
0.2418508118666829,7.5288050174713135,0
0.2425833231595653,7.531752824783325,0
0.253326822121841,7.5344557762146,0
0.2538151629837626,7.537193298339844,0
0.241606641435722,7.539873361587524,0
0.2460017091930166,7.542856454849243,0
0.2411183005738004,7.545590877532959,0
0.2406299597118788,7.548275232315063,0
0.2501526065193504,7.550942897796631,0
0.2508851178122329,7.553976058959961,0
0.2391649371261139,7.556648254394531,0
0.2438041753143693,7.55934476852417,0
0.2411183005738004,7.562235116958618,0
0.240385789280918,7.565017938613892,0
0.2499084360883896,7.567740201950073,0
0.2508851178122329,7.570413589477539,0
0.2401416188499572,7.573392391204834,0
0.2430716640214869,7.576115846633911,0
0.2374557441093883,7.578786611557007,0
0.2367232328165058,7.581459045410156,0
0.2457575387620558,7.584482192993164,0
0.2464900500549383,7.587168216705322,0
0.2367232328165058,7.589841365814209,0
0.2411183005738004,7.592562437057495,0
0.2384324258332315,7.595567464828491,0
0.2386765962641923,7.598250865936279,0
0.2481992430716639,7.6009650230407715,0
0.2481992430716639,7.6036787033081055,0
0.2374557441093883,7.606616735458374,0
0.2418508118666829,7.609334230422974,0
0.2381882554022707,7.612013339996338,0
0.2372115736784275,7.614997863769531,0
0.2499084360883896,7.617722272872925,0
0.2472225613478207,7.620409488677978,0
0.2374557441093883,7.62311577796936,0
0.2398974484189964,7.626104354858398,0
0.2376999145403491,7.628787755966186,0
0.2372115736784275,7.63150954246521,0
0.2481992430716639,7.634219169616699,0
0.2489317543645464,7.63718056678772,0
0.2379440849713099,7.639894962310791,0
0.2408741301428396,7.642575263977051,0
0.2381882554022707,7.645286321640015,0
0.2372115736784275,7.648308038711548,0
0.2479550726407031,7.650999546051025,0
0.2479550726407031,7.65371298789978,0
0.2381882554022707,7.6574625968933105,0
0.2425833231595653,7.660181999206543,0
0.236479062385545,7.6629157066345215,0
0.2394091075570747,7.665632009506226,0
0.2499084360883896,7.668306112289429,0
0.2499084360883896,7.670989036560059,0
0.2374557441093883,7.673731088638306,0
0.244292516176291,7.676406621932983,0
0.2379440849713099,7.679075717926025,0
0.2384324258332315,7.68178391456604,0
0.2501526065193504,7.684478521347046,0
0.2491759247955072,7.687156200408935,0
0.2391649371261139,7.689864873886108,0
0.2435600048834085,7.692543506622314,0
0.2423391527286045,7.69524359703064,0
0.240385789280918,7.697952270507812,0
0.2491759247955072,7.70062780380249,0
0.2481992430716639,7.703352451324463,0
0.2420949822976437,7.706042289733887,0
0.2401416188499572,7.708719968795776,0
0.2418508118666829,7.7114341259002686,0
0.2384324258332315,7.714170694351196,0
0.2460017091930166,7.716844320297241,0
0.2457575387620558,7.7195634841918945,0
0.2438041753143693,7.722236394882202,0
0.235258210230741,7.724943876266479,0
0.2418508118666829,7.727663278579712,0
0.2384324258332315,7.730334043502808,0
0.2418508118666829,7.7331273555755615,0
0.2496642656574288,7.735851049423218,0
0.2460017091930166,7.738529443740845,0
0.2328165059211329,7.7412109375,0
0.2433158344524477,7.743951320648193,0
0.2381882554022707,7.746631860733032,0
0.2391649371261139,7.749310731887817,0
0.2501526065193504,7.752020120620727,0
0.2472225613478207,7.754734516143799,0
0.2340373580759369,7.757407188415527,0
0.2430716640214869,7.760118007659912,0
0.2362348919545842,7.762814998626709,0
0.2381882554022707,7.765491247177124,0
0.2477109022097423,7.7682061195373535,0
0.2477109022097423,7.7708799839019775,0
0.2362348919545842,7.773581266403198,0
0.2418508118666829,7.776286363601685,0
0.2372115736784275,7.778953790664673,0
0.2367232328165058,7.781621932983398,0
0.2481992430716639,7.784364938735962,0
0.2469783909168599,7.787039279937744,0
0.2381882554022707,7.789718151092529,0
0.2391649371261139,7.7924487590789795,0
0.2418508118666829,7.795156478881836,0
0.2374557441093883,7.79782509803772,0
0.2457575387620558,7.8005406856536865,0
0.2447808570382126,7.803242921829224,0
0.240385789280918,7.805913209915161,0
0.2347698693688193,7.808616638183594,0
0.2386765962641923,7.811298131942749,0
0.2342815285068977,7.814010381698608,0
0.2413624710047612,7.816723585128784,0
0.2438041753143693,7.819393873214722,0
0.2413624710047612,7.822067499160767,0
0.2306189720424856,7.824808359146118,0
0.2391649371261139,7.827477693557739,0
0.235258210230741,7.830144643783569,0
0.2381882554022707,7.832972049713135,0
0.2462458796239774,7.835650444030762,0
0.2447808570382126,7.83832311630249,0
0.231351483335368,7.841029405593872,0
0.240385789280918,7.843736886978149,0
0.2340373580759369,7.84641432762146,0
0.2342815285068977,7.849141359329224,0
0.244292516176291,7.851809978485107,0
0.2450250274691734,7.854524374008179,0
0.231351483335368,7.857234239578247,0
0.240385789280918,7.859910488128662,0
0.2342815285068977,7.8625874519348145,0
0.2340373580759369,7.865330696105957,0
0.2450250274691734,7.868004322052002,0
0.2445366866072518,7.870676517486572,0
0.2333048467830545,7.873418569564819,0
0.2379440849713099,7.876094102859497,0
0.2367232328165058,7.878762722015381,0
0.2335490172140153,7.8814756870269775,0
0.2425833231595653,7.884184837341309,0
0.241606641435722,7.8868567943573,0
0.2345256989378585,7.889563798904419,0
0.2333048467830545,7.892240524291992,0
0.2347698693688193,7.894946813583374,0
0.2323281650592112,7.897659301757812,0
0.2401416188499572,7.900324821472168,0
0.240385789280918,7.90303111076355,0
0.2376999145403491,7.905739545822143,0
0.2301306311805639,7.908413887023926,0
0.2381882554022707,7.911087989807129,0
0.2320839946282504,7.913845062255859,0
0.2355023806617018,7.916517496109009,0
0.2413624710047612,7.919189691543579,0
0.2396532779880356,7.92190146446228,0
0.2269564155780734,7.924609184265137,0
0.2359907215236234,7.927297115325928,0
0.2308631424734464,7.929991722106934,0
0.2335490172140153,7.932667016983032,0
0.2440483457453302,7.9354026317596436,0
0.2450250274691734,7.938082695007324,0
0.2308631424734464,7.940760850906372,0
0.240385789280918,7.943500280380249,0
0.2335490172140153,7.94617772102356,0
0.2345256989378585,7.948849439620972,0
0.2462458796239774,7.951569080352783,0
0.2457575387620558,7.954306125640869,0
0.2335490172140153,7.95699405670166,0
0.2394091075570747,7.959711313247681,0
0.2347698693688193,7.962388038635254,0
0.2345256989378585,7.965086698532104,0
0.2457575387620558,7.967804193496704,0
0.2452691979001342,7.970476865768433,0
0.2374557441093883,7.973182201385498,0
0.2394091075570747,7.975888967514038,0
0.2357465510926626,7.978561639785767,0
0.2345256989378585,7.981223344802856,0
0.2423391527286045,7.983967542648315,0
0.2418508118666829,7.9866414070129395,0
0.2367232328165058,7.989321231842041,0
0.2308631424734464,7.992025136947632,0
0.2328165059211329,7.994736433029175,0
0.2298864607496031,7.997413396835327,0
0.2345256989378585,8.00012755393982,0
0.2372115736784275,8.00286316871643,0
0.2362348919545842,8.005543231964111,0
0.2257355634232694,8.00825834274292,0
0.2320839946282504,8.010926723480225,0
0.2284214381638383,8.013629913330078,0
0.2323281650592112,8.016345739364624,0
0.2398974484189964,8.019014358520508,0
0.240385789280918,8.02168321609497,0
0.2264680747161518,8.02442455291748,0
0.2357465510926626,8.027095556259155,0
0.2296422903186423,8.029762029647827,0
0.2320839946282504,8.032477855682373,0
0.2418508118666829,8.035183429718018,0
0.2430716640214869,8.03786301612854,0
0.2301306311805639,8.040571212768555,0
0.2374557441093883,8.043278455734253,0
0.2315956537663288,8.045950889587402,0
0.2325723354901721,8.048689842224121,0
0.2445366866072518,8.051367282867432,0
0.2445366866072518,8.05407977104187,0
0.235258210230741,8.056791067123413,0
0.2367232328165058,8.059463024139404,0
0.2333048467830545,8.062133550643921,0
0.2333048467830545,8.064878463745117,0
0.2440483457453302,8.067551136016846,0
0.2418508118666829,8.070220708847046,0
0.2340373580759369,8.072978258132935,0
0.2347698693688193,8.07564401626587,0
0.2401416188499572,8.078318357467651,0
0.2362348919545842,8.081025123596191,0
0.2423391527286045,8.083720922470093,0
0.244292516176291,8.086393594741821,0
0.2423391527286045,8.089101552963257,0
0.2330606763520937,8.09177303314209,0
0.240385789280918,8.094472408294678,0
0.2386765962641923,8.097188234329224,0
0.2440483457453302,8.099861145019531,0
0.2501526065193504,8.102523803710938,0
0.2499084360883896,8.105273008346558,0
0.2372115736784275,8.107946634292603,0
0.2440483457453302,8.110619306564331,0
0.2374557441093883,8.113361120223999,0
0.2381882554022707,8.11603331565857,0
0.2452691979001342,8.118704319000244,0
0.2462458796239774,8.121422290802002,0
0.2335490172140153,8.124134540557861,0
0.2381882554022707,8.126807689666748,0
0.231351483335368,8.129527568817139,0
0.235258210230741,8.132190704345703,0
0.2362348919545842,8.134896039962769,0
0.2374557441093883,8.137597560882568,0
0.2286656085947991,8.140264511108398,0
0.2315956537663288,8.142966032028198,0
0.2276889268709558,8.145675659179688,0
0.2203638139421315,8.14835238456726,0
0.2359907215236234,8.15102481842041,0
0.2335490172140153,8.153776407241821,0
0.2257355634232694,8.156447410583496,0
0.226223904285191,8.159118175506592,0
0.2296422903186423,8.161816120147705,0
0.2269564155780734,8.164529800415039,0
0.2342815285068977,8.167202472686768,0
0.2340373580759369,8.169915437698364,0
0.2296422903186423,8.172583818435669,0
0.2225613478207788,8.175302028656006,0
0.2264680747161518,8.177997589111328,0
0.2250030521303869,8.180659532546997,0
0.2289097790257599,8.183401107788086,0
0.2306189720424856,8.186070442199707,0
0.2303748016115248,8.188740015029907,0
0.217189598339641,8.191441535949707,0
0.2267122451471126,8.194166660308838,0
0.222317177389818,8.196838140487671,0
0.2245147112684653,8.199546813964844,0
0.2345256989378585,8.202211856842041,0
0.235258210230741,8.204910039901733,0
0.2235380295446221,8.207620859146118,0
0.231351483335368,8.210295915603638,0
0.2242705408375045,8.213206768035889,0
0.227444756439995,8.215924739837646,0
0.2372115736784275,8.218592166900635,0
0.2369674032474666,8.221262216567993,0
0.2247588816994261,8.224002122879028,0
0.227444756439995,8.22667646408081,0
0.2232938591136612,8.22934603691101,0
0.2198754730802099,8.232056856155396,0
0.2296422903186423,8.234760284423828,0
0.2286656085947991,8.23775029182434,0
0.2130387010133072,8.24154257774353,0
